0.000000000000000000e+00,3.467570867766255560e+00,0.000000000000000000e+00,7.363383876519435489e+00,1.783067031188573992e+01,2.020830703473794188e+01,3.087310025969361504e+01,2.959036571152634565e+01,3.713135827435198166e+01,2.462648016170649612e+01,2.660277353047720794e+01,3.916658227078752930e+01,2.836508698000545792e+01,2.880251891635739980e+01,1.981417335772405863e+01,1.294590095316209499e+01,7.687726468277759295e+00,4.757373300962228768e+00,8.233566860258747511e-01,4.591787216549306549e+00,8.530928207399369967e+00,7.240406923897324987e+00,4.229361657121131657e+00,1.492972418559486414e+01,1.270917413366407800e+01,2.167622685263913240e+01,1.865421023816062984e+01,2.416543964528094079e+01,2.113083597639490563e+01,1.193181453661810565e+01,1.000000000000000000e+00
1.492658962204544082e+01,1.019137955614780822e+01,3.055836950065696556e+00,4.733665009616686348e+00,4.955583347715446507e+00,7.452153682488045661e+00,7.033764882944439023e+00,1.959413085489390483e+01,2.618784658148487665e+01,1.610459566505664952e+01,3.208184757756501426e+01,3.220802395025123133e+01,1.849784620781809963e+01,2.498417808627638692e+01,1.353008162314833385e+01,2.760857547388832245e+01,1.322798240939050629e+01,1.059186767877463353e+01,4.866593659364440327e+00,8.341785320812959981e-01,3.581536547959444761e+00,0.000000000000000000e+00,2.828741939671800765e+00,1.064775937221585878e+01,1.238098576201974765e+01,1.451409933624648829e+01,1.851134300526507559e+01,1.831301317874016377e+01,2.018798733052523176e+01,2.687091575491868412e+01,1.000000000000000000e+00
0.000000000000000000e+00,6.555504273853443920e+00,1.026587272629197400e+01,6.331656355288458826e+00,1.725176997055038441e+01,1.493365704003761607e+01,1.993473452364992227e+01,2.297873393077449578e+01,2.386400132387166195e+01,2.202419155365166148e+01,3.034520866900908231e+01,3.397161526222384964e+01,2.969472642117250416e+01,3.551884911169165093e+01,2.355276805235700976e+01,2.381325215450573296e+01,2.443086220048624568e+01,1.828025630203680407e+01,1.069707442917484741e+01,3.136533943043019690e+00,0.000000000000000000e+00,2.347472062649131885e+00,6.897256661971795211e+00,1.288498661780212728e+01,1.494284480800831716e+01,1.988157105463014318e+01,1.716659750393597506e+01,1.548826378848102081e+01,1.975646969604323999e+01,1.089561254474560315e+01,1.000000000000000000e+00
1.747524839377257422e+01,1.306314279234703690e+01,2.519741841585900488e+01,2.358109778060628514e+01,2.731073064678972173e+01,2.331473515863191892e+01,2.555743031781355512e+01,1.770579813402571290e+01,2.051684447651567211e+01,2.259445500853630051e+01,1.948484414258126662e+01,2.358444717317186701e+01,2.812703744789067173e+01,7.926845883467620979e+00,5.456281169378485174e-01,2.484180854301547470e+01,3.777964356858566930e+01,3.372844545992197141e+01,1.751577448607670817e+01,5.037019873049757734e+00,4.448239598496513736e+00,8.237919162434081954e-02,2.343103359253746021e+00,6.507405069089429617e+00,5.304081021191336731e+00,2.009629205570888644e-01,8.173342097655478256e+00,4.214939748711543643e+00,1.679970383478644180e+01,1.630270644288162885e+01,1.000000000000000000e+00
1.311096997800518693e+01,2.537074030841145600e+01,2.730277213828759386e+01,2.752221782667410821e+01,3.519314025301528659e+01,2.454073649980495020e+01,2.926586458580857197e+01,2.930649556269040090e+01,3.208079069537680539e+01,2.098663943321869851e+01,1.512516579784531245e+01,8.592400213520278385e+00,3.112842047368576459e+01,1.155322614721464447e+01,1.850249088509468720e+01,2.892576380802304925e+01,4.321050787440705676e+01,3.471890411862463566e+01,2.574350282268937917e+01,1.921041280671892082e+01,1.498591706468374696e+01,4.889438073827221842e+00,2.859491208991158828e+00,2.084458095462224492e+00,0.000000000000000000e+00,3.307673945352007649e-02,7.405562882061644814e-02,0.000000000000000000e+00,0.000000000000000000e+00,4.526880136006525390e+00,1.000000000000000000e+00
1.467364606319569020e+01,2.016568927119459431e+01,1.352956526364002343e+01,9.230029520987642400e+00,9.458755879114050913e+00,8.841854825251857619e+00,8.011198987501956026e+00,8.988470541393581925e+00,8.111221478258556772e+00,1.448965421915559659e+01,2.144352738447528850e+01,3.243288810212879980e+01,2.542283835795402069e+01,3.109216456902223058e+01,2.773641016771642853e+01,4.150891680275086060e+01,3.762939836167325325e+01,2.558398767815012320e+01,2.626091005680683566e+01,1.301899812239267362e+01,4.442225564347040745e+00,5.630460538552767957e+00,4.276639110625154672e+00,8.917457413781050946e+00,2.052542104048001192e+00,8.942398533165260233e+00,1.609765368981214806e+00,6.005957158025296394e+00,1.209747162368378781e+01,1.492129957886919556e+01,1.000000000000000000e+00
1.834930119278772054e+01,1.554963168451308775e+01,1.592513203057498572e+01,1.712883784146029598e+01,2.372921648156565766e+01,2.682497843959458805e+01,1.839989133933147514e+01,1.852653143034095251e+01,2.095684372490495662e+01,2.848308265141363904e+01,1.619887921460065172e+01,2.206091375496251317e+01,3.346606057939254697e+01,2.039383875292188009e+01,1.461653122007956540e+01,3.266899326097177436e+01,2.581544640512169053e+01,1.907694057574732938e+01,1.411847064820960895e+01,1.018203320318536953e+01,6.812942677066445185e+00,3.572740964403919861e-01,3.331839629155467719e+00,5.012690101120767849e+00,1.202068188823091077e-01,0.000000000000000000e+00,8.837140674612271596e-01,7.405395773393081527e+00,8.214196834169825934e+00,1.957672032867810685e+01,1.000000000000000000e+00
2.006365217648399835e+01,2.262237745752128149e+01,2.095503446024207506e+01,1.596755082026336936e+01,2.133386975606470060e+01,2.222006431532301463e+01,1.303655497295866894e+01,1.842222844114110103e+01,2.658190624557482806e+01,2.194004050425169794e+01,2.045189744624488526e+01,1.889994325316618529e+01,2.744089741163162444e+01,2.438917844710297800e+01,3.595355545911192507e+01,3.881749740280471883e+01,2.809958322439914014e+01,1.595890265490493221e+01,1.189579746508832159e+01,9.702380943665758650e+00,5.796731663219844677e+00,3.855934288652633768e-01,5.817351939473667244e+00,6.616359364116789266e+00,0.000000000000000000e+00,0.000000000000000000e+00,3.169935190142240344e+00,7.676293336067487871e+00,1.071448142579973251e+01,2.110262888593862840e+01,1.000000000000000000e+00
1.569960365539682812e+01,8.972596050114049149e+00,8.377953445308378377e+00,8.804159848017974355e+00,1.264881350334758281e+01,1.267930824369648235e+01,1.709663848133939723e+01,1.964551390409326359e+01,1.056393193630984229e+01,2.031409086632567096e+01,2.490757850555044683e+01,2.909120179256956362e+01,1.210844503994462684e+01,1.914148414730871650e+01,1.147535689284899263e+01,7.258532268347209992e+00,9.418493698699137440e-01,0.000000000000000000e+00,1.578445399438976438e+00,3.888079137965348764e+00,4.675548900636073313e+00,9.415198558617703384e-01,1.363092642315527314e+01,2.588559207836109977e+01,3.385440315120123955e+01,3.411866786737454049e+01,2.908362228064748933e+01,3.479070912400234761e+01,2.576820454678758665e+01,2.727822579154187110e+01,1.000000000000000000e+00
1.005966021534064225e+01,1.412625924606987837e+01,1.699971977126833167e+01,2.742998152171691117e+01,3.568716647138776921e+01,3.326529871884682166e+01,3.535660878812248598e+01,3.872090556933611083e+01,2.916627156613208172e+01,2.664303778807840217e+01,1.789189154994642195e+01,1.591902627297716322e+01,2.195407511380273036e+01,1.838355119914561442e+01,6.045542188489974933e+00,0.000000000000000000e+00,1.186873063786180182e+00,8.117192410929021662e+00,2.327217797439612923e+01,2.145585860020997870e+01,1.251116443902441233e+01,1.306852455288509418e+01,7.184715974271057348e+00,5.781658822879649051e+00,1.730650355485900604e+01,1.613018288920622467e+01,1.962514373106714061e+01,2.556344575601863767e+01,1.793844871877226410e+01,8.349265059020780200e+00,1.000000000000000000e+00
3.195030431528050485e+01,2.483204635880656497e+01,1.241696825366776125e+01,2.444311176041401268e+01,8.238772764652168235e+00,1.213608219966110369e+01,1.201826378123769246e+01,5.291042437444417601e+00,2.764610780230611908e+00,7.926292650137440887e+00,1.460658526327526374e+01,2.758587765654556279e+01,1.410009539301893255e+01,6.350574923500772684e+00,2.237082813359862143e+01,1.708999388870634561e+01,1.836427615853457951e+01,2.642244673226068130e+01,1.634953647065282212e+01,0.000000000000000000e+00,0.000000000000000000e+00,0.000000000000000000e+00,9.085938693081914153e-01,1.170257237028758368e+01,1.786851259317433005e+01,1.463473883499278827e+01,1.501038994284462547e+01,2.055275424781555671e+01,1.879456507141009070e+01,2.776146666032161647e+01,1.000000000000000000e+00
1.340517576757099505e+01,2.311218051379961480e+01,2.143712936242502565e+01,2.406374592233427734e+01,2.179541517288251384e+01,2.742085137084657731e+01,2.318959939896322453e+01,2.020752607443108673e+01,1.889184996077304390e+01,1.621657268716796807e+01,1.404272590926572661e+01,1.797240478138448339e+01,1.679095790764350227e+01,1.697235175175993049e+01,2.037725871780514808e+01,1.998261104971669511e+01,2.405803374612199264e+01,3.196128261770698487e+01,3.068249613595568803e+01,1.466579680961038434e+01,9.014647629160378983e+00,3.696234050745118793e+00,2.349445104242818161e+00,6.756466407663623386e+00,7.550999217895935089e+00,4.817901960910319303e+00,1.224607162247679071e+00,6.203299075645389848e+00,1.493470003572056726e+01,1.332327296496117697e+01,1.000000000000000000e+00
1.324540140371786379e+01,1.493124262187785689e+01,1.134996691746857778e+01,1.317227560560627353e+01,1.581843572225955086e+01,2.029579097989054048e+01,1.641054502207973087e+01,1.005129970221659619e+01,1.316677040491055095e+01,2.007347322499356324e+01,2.249807381248331239e+01,2.765811414845060767e+01,1.219290731245450843e+01,7.503783794576065702e+00,1.008370516003094508e+01,7.436451957601406093e+00,0.000000000000000000e+00,1.509133529883172287e+01,1.976941698495417654e+01,3.252071900150809824e+00,5.845831496852071041e+00,7.038227775617798443e+00,9.337630535876627391e+00,1.302290165414717649e+01,2.045232414079390537e+01,2.703250724661342019e+01,3.186597271041350155e+01,2.913429600486031745e+01,2.769654499917396606e+01,2.764354189839500009e+01,1.000000000000000000e+00
1.666504643313936640e+01,1.293253645514920436e+01,1.926588178788907157e+01,1.005865397663293948e+01,6.058459341772362450e+00,2.420710484416474628e+00,1.505389809148155678e+01,1.048434406465150914e+01,8.674978397069310176e+00,7.385988507629662081e+00,1.122007659646885713e+01,1.670294056898924850e+01,1.377127207115961482e+01,2.739790617594451305e+00,1.325190170806394008e+00,4.764207190562956384e+00,1.713281685355079276e+01,2.016661788722626625e+01,3.338088810666485529e+01,2.761985556722589763e+01,1.511777922332834123e+01,0.000000000000000000e+00,0.000000000000000000e+00,6.127167129141724899e+00,1.775481160288555316e+01,1.920841809381514054e+01,1.602388875480582442e+01,1.285910324456253306e+01,2.109937743030121737e+01,1.216570623180965072e+01,1.000000000000000000e+00
1.824752221568354571e+01,1.265556041532849463e+01,1.073417432129116378e+01,1.692654969569707646e+01,1.228931986350312400e+01,1.159233684793551333e+01,9.101497843816559907e+00,1.325377683503026560e+01,6.718298560859324198e+00,2.009529129372700140e+01,2.661926896994168601e+01,3.883637082700190035e+01,3.323013679929701425e+01,2.784504090745187455e+01,1.736894158238058594e+01,2.050117598787298334e+01,2.583974833365041945e+01,1.980693843942106014e+01,1.374475597063087662e+01,8.820083352449671565e+00,1.241391352589289454e+00,1.285652916853763372e+00,9.906666985867218500e-02,0.000000000000000000e+00,1.046493081589937901e+01,1.775774610545917653e+01,2.146580792097526569e+01,2.123148229837076428e+01,2.277670742149703642e+01,2.088181841161937768e+01,1.000000000000000000e+00
2.580934708776430853e+01,2.556984059143798049e+01,2.028741709755934153e+01,2.898236148878453378e+01,2.823512562924400982e+01,3.192267499232804084e+01,2.420964892609313779e+01,2.175392864190695263e+01,1.745692037779559769e+01,2.646010904680173326e+01,1.482077147197637146e+01,2.657929957980064728e+01,3.248368819549210684e+01,8.525138841161066239e+00,1.970369813970935979e+01,2.409541177392384270e+01,3.141728259454933436e+01,2.415204350678149581e+01,1.869490032412426217e+01,1.215360807574018054e+01,7.921492917216880869e+00,3.036652099663797344e+00,3.975815698398889708e+00,6.214140318954918030e+00,7.495104836720372532e+00,0.000000000000000000e+00,4.744977120822625238e+00,3.416254794602423317e+00,6.886663454548511254e+00,1.533889586130996463e+01,1.000000000000000000e+00
3.105597770661600521e+01,3.084520313296974336e+01,2.813702594862533601e+01,2.410453314175308037e+01,2.994706246512268422e+01,1.925533667643441049e+01,1.395774994253804380e+01,2.066520479006990740e+01,1.923924917415723712e+01,1.714727847427448637e+01,1.690945465074577214e+01,9.499771853849495074e+00,2.149852228912700980e+01,1.936064436271917089e+01,2.986922361542150384e+01,2.769453458528434453e+01,1.421877360938984225e+01,9.474237995464818596e+00,5.145464293754258733e+00,3.095159044896917067e+00,1.678785658562503613e+00,0.000000000000000000e+00,9.000511558075487528e+00,8.152203641073072049e+00,5.891522585275623669e+00,1.043306968446199789e+01,1.747555615933737272e+01,1.777753383348098737e+01,1.586352932251469383e+01,2.487235937962370258e+01,1.000000000000000000e+00
2.402238274323630662e+01,2.226195522369005175e+01,2.816626063907719413e+01,2.106681552104132038e+01,2.256581868841070104e+01,2.022015626918332032e+01,1.486054277671422597e+01,1.902118410042521646e+01,1.689378319642321458e+01,2.006691733072469219e+01,2.294070321909896393e+01,1.389444602996871936e+01,2.890543401928457001e+01,1.126891798535118028e+01,2.200945084302279042e+01,2.210646009356264585e+01,1.030012849317560608e+01,9.438974256777385108e+00,5.358475879619135185e+00,5.671903328161619129e+00,2.127237697705766095e+00,0.000000000000000000e+00,6.979028198485252688e+00,9.301601254351936632e+00,1.480002969414363179e+01,1.195763255574632922e+01,1.764083780892121922e+01,1.878398823336624446e+01,1.642967669716821888e+01,1.837235493269125186e+01,1.000000000000000000e+00
1.771731374997855823e+01,2.177314890761752508e+01,1.893119428950851102e+01,2.069077345933487777e+01,2.133492847765276679e+01,1.835813273795591272e+01,1.275710298934089337e+01,1.668505963139864434e+01,2.564709632232231229e+01,2.710775780533435864e+01,1.898242366791052405e+01,1.544423658245682418e+01,2.709674621312143472e+01,1.285638031899540579e+01,1.407163849405591804e+01,2.316570522021314105e+01,3.077077319727956706e+01,3.063303775622054559e+01,2.999716376877489665e+01,1.788979175014958400e+01,1.116495498516587759e+01,1.050440309912576708e+01,1.171983651856936604e+01,4.197014499793397135e+00,2.342371433473999787e-02,0.000000000000000000e+00,1.809302390590175946e+00,0.000000000000000000e+00,1.389035086950173081e+00,8.251395684140106823e+00,1.000000000000000000e+00
1.524627960536682281e+01,1.740277484950863141e+01,1.006851056874162964e+01,2.175395933991458719e+01,2.771344925439447593e+01,2.553081008391055207e+01,3.194944010798266731e+01,2.506896593761646841e+01,3.596446468191376766e+01,3.047288234758025283e+01,2.610086481739699593e+01,1.127843317013616797e+01,9.127936162307605628e+00,7.324582273740617211e+00,4.818331207865838905e+00,0.000000000000000000e+00,8.479159653203169000e+00,9.895036666436368478e+00,2.320836228945208290e+01,1.831705600874010997e+01,1.084342256934104398e+01,8.920743197928800328e+00,1.111493637037389703e+01,1.438577864274287776e+01,1.047899136976866430e+01,1.561697767183935071e+01,9.543445320592837788e+00,1.196710437485322132e+01,1.522877098070421198e+01,6.324452973287293389e+00,1.000000000000000000e+00
1.178578852025628976e+01,1.701349765437365136e+01,2.113147696643582663e+01,2.308180339880061638e+01,2.201365804845670482e+01,2.017188646676174812e+01,1.363633238241064305e+01,1.326480702821811519e+01,1.150054875374456742e+01,4.994449859028662786e+00,1.896238820878409115e+01,2.102757785437898974e+01,9.328621899880403134e+00,2.885211254408076798e+01,3.264453909781187235e+01,3.442536194179373865e+01,4.168322558793627763e+01,1.895228712189617681e+01,2.124675460644408531e+01,2.440787475726034472e+01,1.438271472081484603e+01,1.048908450986741059e+01,1.200161847503721901e+00,1.562375900160074593e+01,1.891694377135300442e+01,1.893965305310837266e+01,9.067045649673474372e+00,2.328965537386778806e+00,4.951254171905361545e-01,0.000000000000000000e+00,1.000000000000000000e+00
3.161786703357435613e+01,2.169360585885129922e+01,1.560245276623351174e+01,2.117553156680202164e+01,1.297316427367763936e+01,1.380502466485995683e+01,8.959286835354760115e+00,1.079658741699611824e+01,8.533365148711766324e+00,2.327061106970262472e+00,9.829363691495046851e+00,1.625517717521216809e+01,1.450565733511950839e+01,1.205416442206171723e+01,1.178333349262717888e+01,0.000000000000000000e+00,7.508967227325825888e+00,2.414664498786052604e+01,2.506660614772064832e+01,0.000000000000000000e+00,2.867663417385330149e+00,7.700864616163499932e+00,1.548864208079393734e+01,1.661168965611048520e+01,1.812725017240330772e+01,1.732845899792943101e+01,2.187957357532158653e+01,2.550224191926102435e+01,2.935593182465345308e+01,3.192741334062003489e+01,1.000000000000000000e+00
1.368248867585253947e+01,7.476799111614383264e+00,6.979437306897295912e+00,1.303607188256148675e+01,1.421411086215218234e+01,1.050013735360496980e+01,9.782208002074014530e+00,1.967402749245115956e+01,1.586289842498626967e+01,1.571301064789801671e+01,7.777003127124089588e+00,1.966169016654248480e+01,1.096661485985649165e+01,2.150515860892181763e+01,2.779304064544663788e+01,2.163918875835614131e+01,1.535562418673973184e+01,2.397159817320616071e+01,2.415052009810676736e+01,1.553280496412992306e+01,1.127460512062441467e+01,8.286953840406056315e+00,8.073793041645842550e-01,7.256304436949619685e+00,2.112617438933071412e+01,2.498814064275944702e+01,1.653989461566035857e+01,1.696997629446573796e+01,1.463732295005954143e+01,1.331350954833840206e+01,1.000000000000000000e+00
2.250011304398037737e+01,2.778578534249794529e+01,2.653765727245655626e+01,3.151316592438362818e+01,3.414950725374171725e+01,2.953989065049736951e+01,1.774348572530544743e+01,1.985508377693645343e+01,1.342971421795982678e+01,1.102479708649840973e+01,1.914839856182234712e+01,1.444059725237789849e+01,1.622973504503860909e+01,2.672875501549165733e+01,1.579281186471342835e+01,0.000000000000000000e+00,1.425142262364698809e+01,1.282556621532344820e+01,2.484919274619414864e+01,2.077513498950074222e+01,2.098998479715515941e+01,2.376376548466055283e+01,1.957337053101898050e+01,2.358650288462794720e+01,1.643322936690842084e+01,7.988885697047265921e+00,1.346442809345140290e+01,1.547905190985514423e+01,2.239166702313579549e+01,1.653423096121991875e+01,1.000000000000000000e+00
2.116257425697855865e+01,2.434557798189413802e+01,2.257894802934677614e+01,2.328225726774616078e+01,2.341485146716246390e+01,2.141222709386494216e+01,2.558169480772988891e+01,2.254423263057972804e+01,2.003816302936093052e+01,2.908324715563531981e+01,9.809118086452542684e+00,1.665082454919897259e+01,1.242309965875020339e+01,1.286818408769752864e+01,2.172533767727443887e+01,3.221695566068714811e+01,1.703488710197544265e+01,1.434636841950924691e+01,2.970542609462688688e+01,2.710165028311067204e+01,1.536561167277378104e+01,5.522898045416695822e+00,2.757612280475882471e+00,8.598641510266531895e+00,6.615714221823935759e+00,4.650425584613628871e+00,1.474737601090623684e+00,5.750735994844944798e+00,1.036816003573358103e+01,1.917744876522473874e+01,1.000000000000000000e+00
2.577922104005557458e+01,1.947998573179609139e+01,1.763568242602130454e+01,2.159024422844467495e+01,1.757957137803759906e+01,8.635743200591377899e+00,1.460400971077928034e+01,8.325348941239155920e+00,1.943502771334317458e+01,1.162689258963794714e+01,1.155317855436635455e+01,1.669666735750615771e+01,1.667080067089185036e+01,1.295204505814299978e+01,1.172013619445752397e+01,1.533837587868194419e+01,7.478689626493093101e+00,1.670169534411959944e+01,2.845154480723022061e+01,2.055994378400899336e+01,1.036482227558616387e+01,8.282651468674941952e-01,1.520162318844825222e+00,5.818061932731808383e+00,1.346131960287624452e+01,1.800997800644842073e+01,1.777866012530850526e+01,3.412823093079418868e+01,2.947782171288940845e+01,2.885836489590070641e+01,1.000000000000000000e+00
3.241291630663701540e+01,2.720880161539747633e+01,1.766184484786836606e+01,2.209493020562564425e+01,9.616849001794150809e+00,9.312514413219531662e+00,8.303456083529596299e+00,4.042770183175719012e+00,8.022455286247492268e+00,4.689320293374350967e+00,1.441035486834209678e+01,1.639490192940246516e+01,1.156078500446895418e+01,2.498274447812471522e+01,1.154998189292587085e+01,1.171694207069756999e+01,3.644599411466487027e+00,6.420162989104056805e+00,9.938276473807832190e+00,4.800385231512535711e+00,8.641987877249903249e+00,1.331993559005206862e+01,1.447485241708164949e+01,1.736607894486286341e+01,1.810456055666642783e+01,1.285271573961759373e+01,1.814078383413539086e+01,3.135442132197545106e+01,3.361283446944611342e+01,3.165471568310911721e+01,1.000000000000000000e+00
1.973612630562453774e+01,2.441471530283675406e+01,2.655354676969645311e+01,2.868888333226439613e+01,2.015002786911620092e+01,2.827529771924599800e+01,3.282883343551029043e+01,2.772792134057132785e+01,2.154382988434957724e+01,1.979617969777166309e+01,1.894939003427219859e+01,1.749177117056211728e+01,1.933861481380057512e+01,1.095349537231487602e+01,5.238928893666042086e+00,0.000000000000000000e+00,1.326238136311928884e+00,1.214003565913856164e+00,9.678820132887693717e+00,1.606567593558841622e+01,2.123178560127715286e+01,1.332999106584020410e+01,1.241110647914649689e+01,1.640565675799498990e+01,2.228782552776215198e+01,2.118085295376673116e+01,1.164522876473299107e+01,2.055377995395122070e+01,1.701696635755573084e+01,7.362894781711048608e+00,1.000000000000000000e+00
1.481379496771018012e+01,2.121834987568581710e+01,1.878817372941679764e+01,2.430868680728676168e+01,1.322071958477587827e+01,1.352336097856087349e+01,1.195520638506053501e+01,6.156998341830558275e+00,1.249098338106796291e+01,1.580448047846260806e+01,1.712298826709394461e+01,2.974553403877689561e+01,2.963252026743390388e+01,2.156017802675927442e+01,1.108944827964276669e+01,1.813961833377541666e+01,1.083907186892869845e+01,1.361120805410675416e+01,1.809165241580976158e+01,1.315612460003012529e+01,9.498626081124456277e+00,1.142763900464939297e+01,1.205180012431620185e+01,8.265190216368552001e+00,4.301238966817493292e+00,2.006648599918634090e+00,0.000000000000000000e+00,1.267082751476806379e+01,1.334565585127285203e+01,7.138000691937548936e+00,1.000000000000000000e+00
2.880138227880456725e+01,2.176805241465856966e+01,1.683996270156896458e+01,1.894809998952982255e+01,1.153135013231252515e+01,1.069885029428465373e+01,1.199054588201823890e+01,9.020314960062250975e+00,1.029827933831393239e+01,3.964558788485675223e+00,8.209900876301617245e+00,1.729958226699460511e+01,2.597035396999558543e-01,9.475705444084724149e+00,7.932845416856054044e+00,6.523341051504132793e+00,9.204464570667823864e+00,0.000000000000000000e+00,3.228273675639371731e+00,4.926266876330686273e+00,1.079351529965245504e+01,1.813090487153641561e+01,2.227477181327944322e+01,2.183890077064620527e+01,2.084916664740740089e+01,2.113852231677594773e+01,2.184475343178081630e+01,2.670996247816285063e+01,2.725551140773811198e+01,2.868795320841215357e+01,1.000000000000000000e+00
6.493694128133142840e+00,2.395149330285164524e-01,1.177396744828655528e+00,1.650908835308229072e+00,0.000000000000000000e+00,0.000000000000000000e+00,3.146563403400477910e+00,5.730093628856195664e+00,1.257376317076202099e+01,1.751530338514845653e+01,1.543040708619534485e+01,3.238934435794647015e+00,3.693646403435991488e+00,2.563151237460374432e+00,0.000000000000000000e+00,6.347801969897460594e+00,2.612002890874671834e+01,1.522800475385898267e+01,2.364573960228273108e+01,3.654479372096454881e+01,2.771275364856882106e+01,2.853390966275117080e+01,3.019527535562016851e+01,3.083208676595918973e+01,2.540158066837031470e+01,2.385760274902418132e+01,1.318294071014400970e+01,9.204062893193849959e+00,1.483199318028482594e+01,3.914047864773124275e+00,1.000000000000000000e+00
1.883481044154990514e+01,1.176373441337926806e+01,9.316363796481198278e+00,7.787850394871128401e+00,3.385500205376104077e-01,1.487381189972921902e+00,1.541273844440439689e+00,0.000000000000000000e+00,1.462599708967584888e+01,7.364838733635394874e-01,1.081649527324307769e+01,9.496647862765001946e+00,9.104106972757051608e+00,1.878071355511482921e+01,8.713992731814016679e+00,2.548562375909108368e+01,1.984038001922485250e+01,2.210534806839024213e+01,3.695559929265834853e+01,5.033853971433362062e+01,4.259906350137345044e+01,3.850101988651715601e+01,3.291699221412733323e+01,3.004031728915774124e+01,1.898803554799698645e+01,1.237737116822410144e+01,1.041356660821062974e+01,5.432776760497063151e+00,1.739402613682494803e+01,8.175592767982919895e+00,1.000000000000000000e+00
1.618982713131597961e+01,1.351233236220133449e+01,1.456405255410217592e+01,1.685905491785135268e+01,1.353469867851651998e+01,2.086938901522455581e+01,1.464855970369836768e+01,5.289036643726035436e+00,1.129428153279260982e+01,1.093294492608922042e+01,1.292698761593652534e+01,1.691909587974868145e+01,5.183161820969587552e+00,2.317814661353881434e+01,1.810129091595803175e+01,3.160974542373679697e+01,3.291401363580706629e+01,3.099653148256737722e+01,2.732981040080497337e+01,1.729087978603382680e+01,1.095373509879485141e+01,9.753515055814546031e+00,5.644286767335643162e+00,1.026551451533745762e+01,1.191616663206707472e+01,1.821292187720933953e+01,1.337536648134766892e+01,1.204203661795656899e+01,1.265585666044864865e+01,7.700996328398133528e+00,1.000000000000000000e+00
2.545765721832938766e+01,3.706418117954461877e+01,2.818107636802125171e+01,2.130445773464762738e+01,1.526579638620887636e+01,2.305696828153648426e+01,5.829933678050991830e+00,1.601636472993024540e+01,1.865372112014560457e+01,1.841765672326766889e+01,3.046204452580758471e+01,4.358350587918334895e+01,2.438083396663486724e+01,3.304961538264350907e+01,3.046372347333718267e+01,1.483894565184559156e+01,1.763484140818610513e+01,6.989736515730925248e+00,1.409467633670041664e+01,3.734055585281595313e+00,2.287126754493442604e-01,7.352752349327431602e+00,2.090268818484457825e+01,1.153144616166019887e+01,1.823332410831923767e+01,1.736806466758807233e+01,2.249410361705025707e+01,1.158914591871140942e+01,1.621052870917287692e+01,2.580856917597350275e+01,1.000000000000000000e+00
3.143907232704657417e+01,2.348646697492839053e+01,2.714748861698180349e+01,1.907010692793559770e+01,2.241347979096113363e+01,2.244204705032834113e+01,2.421920647492387957e+01,1.899730694266099817e+01,1.855640193546105365e+01,2.146212363816815127e+01,1.383039178810523140e+01,2.147721147630298333e+01,1.854181835503325715e+01,1.560531573196828958e+01,2.438719081639735009e+01,1.679939624287587208e+01,6.882234987993967934e+00,1.899932202581283036e+00,5.163846689975059689e+00,6.407646345322262960e+00,1.215828294136753129e+01,1.676583817140593169e+01,1.499171980609960997e+01,8.140889682103704672e+00,8.925589347064658341e+00,3.290616385503568608e+00,2.535254076865086859e+01,2.560528197917727766e+01,2.849581255274608793e+01,2.853088363993180110e+01,1.000000000000000000e+00
1.968542741214687908e+01,1.961890733156039346e+01,1.851081982500056711e+01,2.573109177326418262e+01,1.959620318436239472e+01,2.310070079394353115e+01,2.241561077948855996e+01,2.288225491313849602e+01,1.387829729032944215e+01,1.788160620399492018e+01,1.362756622871143009e+01,2.221571442511014993e+01,1.987978658824744116e+01,2.400725748668222082e+01,7.318718585540040067e+00,2.913247946408921507e+01,2.206856310961507006e+01,1.088996384405905360e+01,1.501046323187162557e+01,1.933697640070428747e+01,1.582726427001821889e+01,5.511781956469263832e+00,4.933964412126641719e+00,5.669157974366896724e+00,4.044720691265439427e+00,1.897644154810620876e+00,4.378686123404889941e+00,6.662365291091276731e+00,1.231865055182581159e+01,1.234527733650489267e+01,1.000000000000000000e+00
3.006022665942313665e+01,2.495386531186565549e+01,2.228955152548729757e+01,2.158458338737102622e+01,3.037756352706034590e+01,1.591048578166692096e+01,1.917396233323387378e+01,1.894594159511706266e+01,1.420873295836173611e+01,1.993597993601684948e+01,2.707938155155207482e+01,9.122189773031891491e+00,2.352977883280658489e+01,5.794147094477580140e+00,2.444899365570748273e+01,2.477520457190428260e+01,1.119234009963327026e+01,9.459721060225831479e+00,1.089917738937634795e+01,5.856261257618911031e+00,3.987455232938600602e+00,9.679547411863211437e+00,1.766837486560746129e+01,1.562552936459189823e+01,1.576160250035340482e+01,1.705429059708848172e+01,1.664973223365575450e+01,6.561772580563285828e+00,5.323862885037783599e+00,2.315965748177717387e+01,1.000000000000000000e+00
1.890278211720564627e+01,2.642872218687787722e+01,2.205114707702259125e+01,2.769500688769338126e+01,2.270614429084284325e+01,3.599919460336161592e+01,2.705104244821706061e+01,2.279288243122294944e+01,2.457791445767739447e+01,6.802832484395906931e+00,1.317251386472469221e+01,1.210202121680691789e+01,7.646409841149761633e-01,1.274586267383648419e+01,7.372797961211603024e+00,1.003848386141592641e+01,2.428702069349790804e+01,9.940974559530189936e+00,3.500613198844007457e+00,8.698512691491544047e+00,1.524452961562897713e+01,1.988997322860188888e+01,2.482748701051016837e+01,2.538105953009298332e+01,2.555993485687065458e+01,2.943627029659771210e+01,1.477501768276692928e+01,2.697473408396629679e+01,2.424868101676790388e+01,2.518972423168330010e+01,1.000000000000000000e+00
2.009395250684400480e+01,2.530311671235799054e+01,1.889892458169146039e+01,2.151742999580477544e+01,1.336971903266450568e+01,1.026480707841091089e+01,1.118427463774278863e+01,8.215742399645989735e+00,1.296834775889252001e+01,1.409573948493024886e+01,1.366380170563189722e+01,2.995528686978633459e+01,2.723970300282820745e+01,3.960113336611865975e+01,1.189417191148677944e+01,1.627956463891092653e+01,2.984625861552243009e+01,2.125824969023531708e+01,2.900453991624476657e+01,2.686223017981578209e+01,1.741585191691021350e+01,8.627083948964582305e+00,6.414472248978228208e+00,2.352587470293400429e+00,3.602147849850325656e-01,1.755669874047185886e+00,6.273509361713479393e+00,1.940849270499202817e+01,1.544015712922754346e+01,1.475650448456499930e+01,1.000000000000000000e+00
0.000000000000000000e+00,3.800378884427317416e+00,1.008788423867898132e+01,1.421249230772551186e+01,1.387653711632330555e+01,1.071048942146413196e+01,1.919786114116487852e+01,1.853641698256677728e+01,1.893516375462041879e+01,8.204701351708393986e+00,5.475139292775367039e+00,1.936097450470714421e+01,1.558577971878506219e+01,1.198130513797897834e+01,1.124066696846242053e+01,1.846600933266725519e+01,3.798467193366823835e+01,3.699803587034989505e+01,2.494556654018524000e+01,2.746325110732951202e+01,3.432433032890338609e+01,2.103425851724301765e+01,1.318927109173688450e+01,5.232041839114231152e+00,3.356449736784298921e+00,4.895832840422571053e+00,5.892680099970277752e+00,8.035096406382820078e+00,3.120460515450702133e+00,0.000000000000000000e+00,1.000000000000000000e+00
1.450303671480406820e+01,2.143557858765097990e+01,1.920841287003301545e+01,2.272923042915962810e+01,1.344724674596304226e+01,2.018260148971444323e+01,1.946836481179377643e+01,2.102614858320083613e+01,2.123457168468985401e+01,1.884932683015691168e+01,1.489721139081544266e+01,3.094392021332896547e+01,2.545509901764046390e+01,3.373996413722403531e+01,2.031642235868193325e+01,1.862525182255512846e+01,2.363325165623450630e+01,1.536734956275702757e+01,2.211083397907580661e+01,1.839647611881753164e+01,1.554247942365910262e+01,1.300230605823466590e+01,1.287048230791509695e+01,7.758350856926853112e+00,8.197165955621102285e+00,5.529956219013854479e+00,3.389490681500262781e+00,1.597624062228717889e+01,7.745367725381498758e+00,1.135665517236321875e+01,1.000000000000000000e+00
1.786378193972419126e+01,1.317120258828376222e+01,1.495534552103634951e+01,1.992880005122233911e+01,1.952497023192532311e+01,2.274955660185145234e+01,2.179774322780860984e+01,2.760086052982862270e+01,2.625554432896427670e+01,2.886990038018683435e+01,1.349870854230013606e+01,1.867252147385207195e+01,1.269030307605771668e+01,2.249572096526875953e+01,1.152008934974668364e+01,9.710311962247345718e+00,1.585740036607325010e+01,1.766244322161264790e+01,4.540672997728250948e+00,0.000000000000000000e+00,0.000000000000000000e+00,0.000000000000000000e+00,5.065948074786547295e+00,9.517957724105770012e+00,1.094227128907249380e+01,1.477389486504699789e+01,1.753879342884417269e+01,2.386903836417741331e+01,1.405435473476089214e+01,1.760838724707230085e+01,1.000000000000000000e+00
2.881541085345543252e+01,2.628849452209595938e+01,2.472131798120548751e+01,2.792065937199180325e+01,2.538568664436797917e+01,2.074340229200640806e+01,1.616917724411740664e+01,1.661494842355787682e+01,2.080554855839955053e+01,1.358348178287059227e+01,1.841023140436919903e+01,1.537402152498015084e+01,9.025184821240941346e+00,1.886325372671331024e+01,3.155846633030222392e+00,6.668906199786420075e+00,8.843647716685381965e+00,1.252548744670207270e+01,1.766883094231650375e+01,1.366467008166924302e+01,1.385878680628132997e+01,1.950107841030219902e+01,2.860766159444656864e+01,2.296134844822344689e+01,1.474304420907091639e+01,1.965526865237922038e+01,2.409848470449125557e+01,2.836801960373526299e+01,3.028724519785228608e+01,2.822649871349747741e+01,1.000000000000000000e+00
1.720373835659128758e+01,1.297055940837233834e+01,1.834345913083410551e+01,1.706622856656449017e+01,2.025103954875334011e+01,1.243035821864617674e+01,2.137592186346145695e+01,2.129610279754811586e+01,2.098817731808608755e+01,2.989012353593176385e+01,1.201237793327098302e+01,2.603312225743684394e+01,2.327455415968077546e+01,1.965337633221315627e+01,1.324730086096005266e+01,2.996554715758358611e+01,1.980006781752666711e+01,1.865441820623237845e+01,2.039674999444454784e+01,1.612062484799895401e+01,1.737349158270251337e+01,1.191476182353051172e+01,1.512382235093357963e+01,1.066625249663823638e+01,6.510547723811612286e+00,5.962865885853062764e+00,2.542317722345075026e+00,5.623986941714065324e+00,7.338040236990366338e+00,1.333441049017065438e+01,1.000000000000000000e+00
2.520928954498751295e+01,1.791818828151127718e+01,2.041216940641137967e+01,1.732852626158722842e+01,1.643362490177523227e+01,2.029221658648623361e+01,2.030756662385860523e+01,2.505044742221792831e+01,2.534586811746598300e+01,1.888813146157514211e+01,1.491861329804791581e+01,3.098319866284435875e+01,1.600347183312064203e+01,1.319768847468981221e+01,3.052249318883824003e+01,3.086147135027746913e+01,2.128022500128290062e+01,1.104035289860220814e+01,1.624168083746567959e+01,2.340937727642057098e+01,1.808058487166817940e+01,7.901942279079662512e+00,3.714477538636913323e+00,1.938220954008812669e+00,4.055427186775091286e-01,8.067474245648611486e-01,1.248404119660949618e+01,1.541194320711582577e+01,1.215422285512011058e+01,1.852135247314129174e+01,1.000000000000000000e+00
2.570323370093231574e+01,1.819095783152982904e+01,1.668238936455199450e+01,2.020566538009376245e+01,2.140696185072229696e+01,1.494595847764637142e+01,2.011298156426119021e+01,2.140103025277164761e+01,1.772171393373483284e+01,1.752375391974777585e+01,1.869994577953897874e+01,3.612020944797052380e+00,1.408478730231288978e+01,9.067347206764367229e+00,7.705018428858807056e+00,8.794473796899779927e+00,5.611136835873367090e+00,1.400628007803749142e+01,1.533752484617662049e+01,2.305798100922328331e+01,3.127191272193243776e+01,2.803741767275280949e+01,1.884344112084113476e+01,1.566831118001061895e+01,1.127850182460139195e+01,8.208425595649941897e+00,6.461570284622553118e-02,9.217613244711998277e+00,1.045091548892520450e+01,2.583241112252858329e+01,1.000000000000000000e+00
2.785238702136726374e+01,3.005176647537385293e+01,2.214692862807359575e+01,2.326076465594144338e+01,2.108076681952709919e+01,1.365867252951241539e+01,1.872519258496299699e+01,2.596605158888439746e+01,2.764439914029384227e+01,1.114228577187975588e+01,2.415395582130702223e+01,2.281814374311107940e+01,2.172968129536761239e+01,1.563142761535206660e+01,3.403211018881194150e+01,2.764522006089069350e+01,1.781568638190833553e+01,8.882458453259346243e+00,8.619504466358847594e+00,1.308467599730707320e+01,8.548240499500735723e+00,5.881775479756726099e+00,5.893041299967649138e+00,0.000000000000000000e+00,0.000000000000000000e+00,0.000000000000000000e+00,9.080727761691321120e+00,1.428854681471125332e+01,2.630152139883469431e+01,2.732661285159460363e+01,1.000000000000000000e+00
2.040420907402457829e+01,1.587922859147789723e+01,7.151049550210387906e+00,8.878742170781805498e+00,8.839579967256725013e+00,5.531995295162516868e+00,1.555855745356697639e+01,5.508898412992152771e+00,1.996098016588209134e+01,1.491525913495334521e+01,2.206877649637843319e+01,2.649797680742247508e+01,6.261204347025511652e+00,2.581474699916111604e+01,1.475471491861782170e+00,1.453326010249958244e+01,3.189742421853063092e+01,2.513085881111018693e+01,2.195601030836101586e+01,1.588046816534313166e+01,1.855343157983281799e+01,9.222488778663148423e+00,6.081408958803109499e+00,1.339690771693378224e+01,2.195781103240946663e+01,2.409039501032629005e+01,1.552514359256315402e+01,1.969735524324474341e+01,1.746372729675934465e+01,1.701569698120493968e+01,1.000000000000000000e+00
1.278319560472348826e+01,9.623159267497413794e+00,1.770885894924822423e+01,1.000486125624905753e+01,1.818182509022443583e+01,2.011858011522761558e+01,2.179019695293806080e+01,2.382591093362597690e+01,2.348752074387951438e+01,2.454354214809688983e+01,1.703502252682019957e+01,2.147544535182154846e+01,0.000000000000000000e+00,1.497576411354481252e+01,1.478625671853066592e+01,2.498275321403042426e+01,2.821681053213004020e+01,2.263061908100507935e+01,1.615308270769287446e+01,6.964522285268770929e+00,1.157096035239391085e+01,8.873205905602134180e+00,9.534071902635474771e+00,1.143080107637501897e+01,1.177142403713318686e+01,1.115241726530649657e+01,1.539316679687746614e+01,1.172049208934308240e+01,1.737366214646147000e+01,1.411987426365888609e+01,1.000000000000000000e+00
1.211373131428501893e+01,6.122975755510992713e+00,4.873354418697573465e+00,1.093834631840078941e+01,8.988032072072996925e+00,0.000000000000000000e+00,9.348932322006447748e+00,2.552784926996423565e+00,1.611309537674813441e+01,1.034296485270982657e+01,1.626305287202472982e+01,1.501833066422355500e+01,1.727718907390206482e+01,2.740515011721089422e+01,3.370761754570011703e+01,3.055528519421108058e+01,3.816923009749530138e+01,3.811589746903854348e+01,3.850382951818522770e+01,2.928796593270826065e+01,2.520490771538433705e+01,2.768247107088006942e+01,1.690227052603671609e+01,2.829081532260545373e+00,6.050134159927921473e+00,1.201060622902906516e+01,1.537287734941972417e+01,8.885686092208430864e+00,8.192062907568981700e+00,2.065447301613346553e+00,1.000000000000000000e+00
2.101028146295664101e+01,1.033722634965610609e+01,1.463582747831179631e+01,2.084280816101136224e+01,9.976044861589969059e+00,1.231775489337223917e+01,2.093209054849450013e+01,1.610233826451050732e+01,1.506581625141458858e+01,2.383632702038124762e+01,2.106302640549699845e+00,2.575687830752315222e+00,1.403851896581346637e+01,1.336716552152861937e+01,6.694474928215129239e+00,1.732451320517355953e+01,9.292774400031106552e+00,0.000000000000000000e+00,3.985737190934202090e+00,1.353887452424118010e+01,1.559537053066185308e+01,1.811895165636317984e+01,2.836661497767363471e+01,3.524291186857638536e+01,3.074694893982328381e+01,2.636456100341723641e+01,2.070735036843387888e+01,2.348409879237721043e+01,1.843119963946136863e+01,1.799971172581786050e+01,1.000000000000000000e+00
1.694146135190339919e+01,1.198091397304605721e+01,9.499548721717701483e+00,1.226932675358625602e+01,5.086027509517805356e+00,1.450045033120545668e+01,1.400275389988374286e+01,1.750993986263665647e+01,8.211341302252321839e+00,1.292540953055035402e+01,1.415061286548581165e+01,1.359410892767220957e+01,1.039269231716107811e+01,8.262151294326713469e+00,7.382375654242281371e+00,9.976510260361692417e+00,1.369509372986951234e+01,2.017324434752302409e+01,2.631173455084552870e+01,2.152767347152956745e+01,2.092534101586963402e+01,2.142228033214431093e+01,1.575373456008827588e+01,2.096602055474119197e+01,2.601929684126514530e+01,1.809821524634398315e+01,1.687777988639314231e+01,9.240759339992450805e+00,1.315681501120243979e+01,1.106189667169272184e+01,1.000000000000000000e+00
2.655021646771092492e+01,2.506980590190693192e+01,2.111707154424291843e+01,2.364670570083336543e+01,1.856720127666562803e+01,2.507212863651363932e+01,2.887078381220413803e+01,1.632363531003656476e+01,1.833698335206119623e+01,8.957415488321089470e+00,1.328220560076425727e+01,2.432602527712603546e+01,1.715148489260369047e+01,1.304884845145770100e+01,2.983755198138840115e+01,1.708816567576405987e+01,2.013751745824470163e+01,1.126301203985340749e+01,1.608448991433749597e+01,1.365997397357244836e+01,1.125812481130935794e+01,1.233132546306811150e+01,1.148588204791968792e+01,8.671965655462884115e+00,5.817196538922075888e+00,8.250759684996609167e+00,6.148189430426498348e+00,1.697513871427705112e+01,1.325752318891906611e+01,1.430320583751009167e+01,1.000000000000000000e+00
2.382904564025878358e+01,2.278832410038555167e+01,2.168355846303367684e+01,1.965987788273355363e+01,1.963330752760614928e+01,1.897139024691381337e+01,1.806141070167194584e+01,2.602080196741641771e+01,2.310800450494269853e+01,1.451401850359127366e+01,1.276013488911507920e+01,1.078596569157429030e+01,1.991699728518727852e+01,1.994230469294186037e+01,2.724579406658375547e+01,1.961614645732649365e+01,7.520251407227164009e+00,5.283729293943679295e+00,6.104704938328040953e+00,1.141925784661972898e+01,1.414505410324969148e+01,1.346755788206411353e+01,1.473977763819590336e+01,1.160059034841404468e+01,1.015832225469617356e+01,2.917726122872181804e+00,1.237770173391419348e+01,1.997801768324220006e+01,2.354497228936907050e+01,2.037214330398830953e+01,1.000000000000000000e+00
3.086707725876186714e+01,1.536818676557820140e+01,1.837107522073716837e+01,1.964620495244267318e+01,1.117985909841507919e+01,1.175541365360209056e+01,1.558359049842201216e+01,1.584212646455679874e+01,1.423318641779070504e+01,9.142688838142532859e+00,6.925281416989520267e+00,1.330203090445399994e+01,1.496814460138460845e+01,6.269630475203570086e+00,3.707302625622872938e+00,1.110725100574978796e+01,6.466518232672967770e+00,0.000000000000000000e+00,0.000000000000000000e+00,0.000000000000000000e+00,8.168450683183408501e+00,1.124754450026810559e+01,1.221501387049002574e+01,1.628562924048719651e+01,1.312402220668431596e+01,1.657690948672470199e+01,2.118897057140441120e+01,2.786953328954911058e+01,3.054296407525211521e+01,2.909999327871847186e+01,1.000000000000000000e+00
2.778072795569318032e+01,2.494594297329120991e+01,1.793704858525876489e+01,1.913343549556199719e+01,2.130809614149180220e+01,1.514391650691345603e+01,1.383085020248034880e+01,1.879757133097041333e+01,1.690021832040164895e+01,6.597502252820305557e+00,1.813429353952699330e+01,1.127391494405608796e+01,1.052642041613793822e+01,7.550939734026087535e-01,1.388653116458593217e+01,1.932962637576250131e+01,9.959910301559261825e+00,4.268958874397924319e+00,8.056799221329242755e-01,1.921033943777985087e+00,8.364738939351269664e+00,8.354724238461898267e+00,7.634603324867839547e+00,4.686105296208211257e+00,8.641837225538722578e+00,9.813717600509676231e+00,1.649785300635187468e+01,2.655088881391253608e+01,2.803544503306650881e+01,3.129557538225716939e+01,1.000000000000000000e+00
2.222663452614401081e+01,2.785116006398615696e+01,2.546188227331194298e+01,1.957774683598915999e+01,1.646277085189220202e+01,1.665621461278044535e+01,2.513923634698613796e+01,2.635851166102079901e+01,2.072149950186312140e+01,1.349273994401627874e+01,2.155270967738792365e+01,1.561767555413081254e+01,2.490217468238358833e+01,2.314930222418661288e+01,2.434488071063088910e+01,1.768487242595466569e+01,1.087375265159724336e+01,1.267595140198443460e+01,1.911737214441413357e+01,1.340765140939998901e+01,9.293710229887352625e+00,1.158193942767928775e+01,1.313725863445327491e+01,1.066077128658568540e+01,6.576050933053778635e+00,6.379181426726262316e+00,6.592140463638145320e+00,1.620514756272510226e+01,1.486182924122138616e+01,1.224899197655631156e+01,1.000000000000000000e+00
2.126160929504180785e+01,2.735433917146332305e+01,2.487458541418837399e+01,2.241030587280380360e+01,2.180449832153917100e+01,2.234626056355051560e+01,2.321866059152699791e+01,2.341522342082262753e+01,2.505351887722429183e+01,1.379130338897942920e+01,1.773730884919689288e+01,9.530686962315400024e+00,1.258582907110215388e+01,1.268404245997299995e+01,2.096957014443950129e+01,1.457509258972345378e+01,1.362533628604126079e+01,1.370309071613939977e+01,1.072932219799642439e+01,1.743798228702800657e+01,2.047827487546902603e+01,1.647597425482547351e+01,1.190761879514798238e+01,1.213597610253631842e+01,1.019783105472248508e+01,5.922009224796369153e+00,1.336274751308059194e+01,1.218063659881175909e+01,1.494146087662383593e+01,1.661868658508731755e+01,1.000000000000000000e+00
1.958795777896878576e+01,1.799962658009036431e+01,1.830906496142509354e+01,1.631837802964338380e+01,1.817816877218416494e+01,9.147182569519884510e+00,1.696293693334260411e+01,2.250191482237457308e+01,1.914667636219184033e+01,2.360745603893030875e+01,2.210441608978311478e+01,1.032027706140064538e+01,1.198566120739761232e+01,3.014601523313879738e+01,6.270944652720487511e+00,1.902782141930347848e+01,1.035356353639386384e+01,2.918281710891761804e+00,8.167858318700012887e+00,8.181510627565984350e+00,7.666636102028149935e+00,7.071301282914959074e+00,1.648469625304070973e+01,2.001164254643666141e+01,1.278902053669906991e+01,1.748941799696720523e+01,1.018528319922373271e+01,1.544183951063121185e+01,1.993710901173449201e+01,1.927037034679545968e+01,1.000000000000000000e+00
1.849934708102426839e+01,1.606010077930815783e+01,1.959521462594275931e+01,2.045041252914509755e+01,2.037298100361249453e+01,1.992318918860507893e+01,1.318846710854774074e+01,1.414870906314359900e+01,1.254820160037525056e+01,3.468644269794850743e+00,1.683913930643132062e+01,2.060732404492006253e+01,1.522585641100152998e+01,2.409723058599004730e+01,2.413440516271060687e+01,2.203655179659136820e+01,3.299532696452300229e+01,2.242798624535632257e+01,1.446243389703076332e+01,1.437614413104569167e+01,1.618723598158186405e+01,1.614379978052065212e+01,7.091330467003700733e+00,1.897657605908875667e-02,3.381906781732197942e+00,1.106748215607166230e+01,1.118692314982942548e+01,1.162079623713228216e+01,1.135261570365534567e+01,7.742363848029668816e+00,1.000000000000000000e+00
2.189661987437054336e+01,1.718425864431637251e+01,1.648282042902505395e+01,1.479128592780554641e+01,2.290974695403753003e+01,1.981233877492104511e+01,2.364443152253593894e+01,2.173700867051374530e+01,2.324244888432599510e+01,1.641145225846764788e+01,1.761707958936926843e+01,4.832734747230063022e+00,4.564084732643891584e+00,2.087801575332008497e+00,8.107654242613477891e-01,3.877438832173993433e+00,6.626393794339833221e-01,4.094702567697680706e+00,6.511358624773066595e+00,6.642522839753240760e+00,8.405800613064997151e+00,1.415434851733596133e+01,1.850633844275262163e+01,1.717140294007248258e+01,2.334670741182100073e+01,2.687763338989040562e+01,2.726740236197611011e+01,3.402108625112992968e+01,3.449082777394843902e+01,3.357529809068853410e+01,1.000000000000000000e+00
2.178357910076732651e+01,1.217082900308480475e+01,2.006063753541258166e+01,1.859294122427024831e+01,1.395405245137203565e+01,2.528154134987713064e+01,2.477373899422465797e+01,2.675347070132158933e+01,1.363646206945830386e+01,1.687996415000935713e+01,1.769781789719399967e+01,1.555931366874489186e+01,2.169064523440485459e+01,2.472392742203430771e+01,1.690604754045685354e+01,1.559543264952191066e+01,1.205865061306931807e+01,1.385992283677114756e+01,1.529692388945437642e+01,1.205105076505515171e+01,1.079642820677594273e+01,7.867466590348556110e+00,8.498407351604953419e+00,1.278596451002280787e+01,8.145604973935462567e+00,9.549584109954054156e+00,5.758298504224399039e+00,3.845921750513468851e+00,1.291830849773936052e+01,1.434729631524257343e+01,1.000000000000000000e+00
1.837439064657570498e+01,1.517329179627273561e+01,1.055989093830535808e+01,1.089771274558628988e+01,9.300159023354638066e+00,1.503377479914669834e+01,1.398891778717569423e+01,2.200675795851776684e+01,1.136504654982294937e+01,1.368238884835994895e+01,1.520383883314039508e+01,1.339008147326822495e+01,6.169848707878429650e+00,8.474192179143983594e+00,0.000000000000000000e+00,2.241142076833739338e+00,8.052251352365402681e+00,1.142161153086962599e+01,1.225107981809574653e+01,1.469036555435357627e+01,1.855758861695508699e+01,2.052941217791874351e+01,2.069186371006247782e+01,1.814076315127698535e+01,1.865733900145042412e+01,1.327788799069577408e+01,1.935179149156456901e+01,1.321549681785865005e+01,2.006266849470722491e+01,1.638860087963212209e+01,1.000000000000000000e+00
1.288781736863461447e+01,1.865927912271419586e+01,2.433983873284944366e+01,1.453155083317497542e+01,2.205272297267566728e+01,1.494327532848743090e+01,6.758398759395305433e+00,2.059851621370458474e+01,1.379273596046789407e+01,1.393900122654491724e+01,2.461880127115844630e+01,5.049949022949846267e+00,1.406061446853024677e+01,2.595971457897232426e+01,2.578255344794820303e+01,2.157981868315479801e+01,2.556915198181084747e+01,2.377806888071481239e+01,1.913710130863759673e+01,1.419812305914575745e+01,9.571075841037924192e+00,5.713217399937320806e+00,9.822617751294444588e-01,0.000000000000000000e+00,4.452905252334119268e+00,5.821771003050542959e+00,1.294130037331788685e+01,1.327647880327776875e+01,1.072001157394612392e+01,1.168922975166319134e+01,1.000000000000000000e+00
2.283387684411897567e+01,1.906614666192524510e+01,1.873312708199418353e+01,1.657634094579523776e+01,2.411468546716858441e+01,2.556306158923490557e+01,3.065449001187991485e+01,1.505613291391455277e+01,1.947454529342815022e+01,1.667376353493077090e+01,1.646817142524844257e+01,1.388374187094228773e+01,1.103266422151753545e+01,1.645382628904741296e+01,8.907723195807847105e+00,1.543763589170367823e+01,1.201099566822244924e+01,1.607065627992639634e+01,2.179234495881891576e+01,1.792235176194151336e+01,1.376972542362531726e+01,2.056495401805278789e+00,3.570153569728631737e+00,1.190992955376751183e+01,1.234445728011306187e+01,1.730693091880908696e+01,1.812908030372625490e+01,2.354703584488595425e+01,2.002455616926184234e+01,1.425675321210948709e+01,1.000000000000000000e+00
1.618761189567106840e+01,1.762793878353767241e+01,1.866160450941760018e+01,1.947911453832958273e+01,1.556578011760532831e+01,2.016772613653085955e+01,1.732561431915706862e+01,2.010219496965208918e+01,2.588165536662006616e+01,1.386012239046826267e+01,1.413196859352703427e+01,2.325413094441717021e+01,1.463252986890233842e+01,1.972291871784889850e+01,4.607160899372161111e+00,2.798613033376454950e+00,1.359379650834424069e+01,1.515572394020921365e+01,1.882413629606344330e+01,1.958976913190184632e+01,1.717437091713262021e+01,1.338891065963386495e+01,2.108705343645129915e+01,2.267615241523805025e+01,1.766453748229344001e+01,1.633417073524628904e+01,9.162979876151837288e+00,1.540321502007407162e+01,1.346211571968586895e+01,1.152397577085542935e+01,1.000000000000000000e+00
1.124251972684052703e+01,1.963558102662065608e+01,2.331818442854159912e+01,1.370259690585479007e+01,2.278179473826406820e+01,2.019466701723084157e+01,1.041281451585075501e+01,1.399291789705677047e+01,1.522693143022712547e+01,2.610487114311504797e+01,2.099976148058075864e+01,2.709292871843277339e+01,1.187332064061027381e+01,2.934329457087855531e+01,2.569144012217995510e+01,1.784266040441434598e+01,2.673184092316529359e+01,2.554368683717672184e+01,2.807762568807871162e+01,2.146636139045264713e+01,1.559839071797955512e+01,1.053614017769078259e+01,4.920258485076828947e+00,8.265345943868851464e-03,0.000000000000000000e+00,0.000000000000000000e+00,7.975623532094033408e+00,9.056741265951217201e+00,1.434952132203571296e+01,1.911774792738185624e+01,1.000000000000000000e+00
1.330854280881723639e+01,1.784577956294765499e+01,2.354021990152713784e+01,1.862532214204730963e+01,3.186949126454672410e+01,2.153291529855468411e+01,2.255022379843492786e+01,2.248166256225275106e+01,1.998097941377477582e+01,1.619757655246343120e+01,2.711060051197469534e+01,2.105256866438185170e+01,5.837672525360062536e+00,1.296130344964925030e+01,1.020288219127286311e+01,3.361121118858790169e+00,7.483088590137356277e+00,8.860010799180344065e+00,3.389800144758766010e+00,3.606991856956824449e+00,1.018273317321910554e+01,1.176306156195207109e+01,1.512401772331489269e+01,1.856801492606331294e+01,2.198352539640464443e+01,2.436264138054963269e+01,2.105778707334056321e+01,1.940354200920657490e+01,2.105762716512404609e+01,1.194425870690199076e+01,1.000000000000000000e+00
2.317132817044512194e+01,2.383143480131315073e+01,2.379266101070138006e+01,2.218328695715499066e+01,2.910357872180324534e+01,2.594314605077420310e+01,1.986276989652054681e+01,1.997325200813301649e+01,2.383823410433544154e+01,1.553999799312964569e+01,2.491086466220718876e+01,1.934637364227407375e+01,1.019853507327655961e+01,6.233217311281208595e+00,1.429109269599709364e+01,5.968478674786069860e+00,7.053936513626354099e+00,4.491411013180538703e+00,1.663670246941620690e+00,7.193375234621726122e-01,3.919929700227839930e+00,1.432906267873642037e+01,1.585657692043642442e+01,1.588976744269473329e+01,1.922970638031847557e+01,3.071213385872908930e+01,2.510256497286673039e+01,3.071319406147210884e+01,2.714193157796529476e+01,2.544628981494389564e+01,1.000000000000000000e+00
1.943974648684479689e+01,1.533995010240536772e+01,1.334817711412159724e+01,1.921821995256451032e+01,2.140984575287248504e+01,2.803451258241616983e+01,1.921976312222159322e+01,1.687939760739413941e+01,1.792010814217968573e+01,2.508393567624116827e+01,1.143766801373215003e+01,1.526250965519611213e+01,1.671103900001907050e+01,2.093435721241169745e+01,7.682943420320384575e+00,6.205303716101326472e+00,9.478494283715747315e+00,8.392970782417251030e+00,1.645286955283484076e+01,1.926123937215427873e+01,1.431330934840298141e+01,1.146640421606164750e+01,1.854450480605410689e+01,2.157488357325408401e+01,1.271511797316364323e+01,9.070635733439956994e+00,2.912443463214231087e+00,1.334049293873155762e+01,1.711859690701018621e+01,1.911455710904169791e+01,1.000000000000000000e+00
9.894923283960537219e+00,9.551638092925173851e+00,1.594278680519778391e+01,1.413924529939714603e+01,1.438810081738358804e+01,1.466017481577713966e+01,1.969452719835823018e+01,8.476526065941698107e+00,9.956487399711591024e-01,6.989166561861537730e+00,8.039749068493364348e+00,1.152383038865835374e+01,2.939283535275023951e+00,1.516111763472551388e+01,2.594894088150817879e+01,2.332518820685152150e+01,1.692960377596824628e+01,2.283448592456150550e+01,2.491580191049368409e+01,2.054700681898276571e+01,2.062603626922191324e+01,2.792985087019630441e+01,2.442822870905675359e+01,2.209124447898537369e+01,2.156332100126476803e+01,2.379869090770793605e+01,1.697541968922715228e+01,1.164031230833060704e+01,6.109542780462135170e+00,3.009166404027752151e+00,1.000000000000000000e+00
1.544301480926299064e+01,1.202887012834321467e+01,1.590649271966574929e+01,1.081664042339599519e+01,0.000000000000000000e+00,1.142752070838250233e+01,1.994390577170392476e+01,1.867368141908326606e+01,1.201966187719889945e+01,2.211116153423620290e+01,6.405396527597531531e+00,1.818557297462336919e+01,3.474274812979587068e+00,1.295051867528960088e+01,8.703722258388950195e+00,1.133810349667493256e+01,8.424392973380435024e+00,1.793827018151944230e+00,8.974859475621713045e+00,1.945582150420622725e+01,2.235462366498629194e+01,2.446088220386761236e+01,2.519659499244863810e+01,2.137690324672797715e+01,1.445423256434338555e+01,2.086233593879867954e+01,1.838711466061667466e+01,1.732244015586354635e+01,2.055807792532669964e+01,8.317420801592163571e+00,1.000000000000000000e+00
2.467193378096536094e+01,2.120352208702726671e+01,1.449847763218423324e+01,1.591160430649057389e+01,2.582544709700741237e+01,2.291515113396317815e+01,2.974760011405544446e+01,2.624803633231377376e+01,1.595318489661292460e+01,2.088337475184115988e+01,2.263499280331672026e+01,2.355069859028753854e+01,1.439267795171701891e+01,1.351873255972770949e+01,1.668463133404605969e+01,1.209745915644313641e+01,8.893550108758205397e+00,1.510878193631867816e+01,1.607522042085332714e+01,6.275770731071702357e+00,7.735087421213904690e+00,8.326524301483857471e+00,8.669683598115625500e+00,7.049884845942926859e+00,9.556627092558045433e+00,9.633278834535332180e+00,2.312804522728978895e+01,1.993291512977666002e+01,2.008819613857943409e+01,2.354066994114731415e+01,1.000000000000000000e+00
2.688139926731540186e+01,1.648753572790519684e+01,1.821661629623591239e+01,1.999500064541501843e+01,1.735664545565174421e+01,1.471835118517935825e+01,2.799876431222151041e+01,2.264223428530414139e+01,2.752854792813127460e+01,1.588239667289616364e+01,3.112055040976912323e+00,2.275524296948083247e+01,1.342029557629467718e+01,2.416890541644016821e+01,7.725004222771019613e+00,1.234350941599853968e+01,1.443422658459920171e+01,1.437354104956708056e+01,1.558896434524302776e+01,1.197288180683736414e+01,1.663961147075403346e+01,1.129211056029669180e+01,1.316031739343554818e+01,1.299744735345120716e+01,9.938923572771898307e+00,1.401800330258018334e+01,8.055960899747020676e+00,1.527637490622305450e+01,2.023876530282473141e+01,1.655229199145006191e+01,1.000000000000000000e+00
1.929477474058680286e+01,1.443127995499432359e+01,1.923937914545300032e+01,2.674689176428202586e+01,3.043055216160087184e+01,2.876859272276453794e+01,2.696363789973605662e+01,2.650347881556825769e+01,2.168767701230817124e+01,2.335302636372105667e+01,1.798463636689160694e+01,1.687423037970569339e+01,1.855283234790749702e+01,1.161606371265835946e+01,1.070921400253303091e+01,1.127700580339444514e+01,1.163477479664987868e+01,1.613640726633630607e+01,1.051441866899259026e+01,1.074609092554166523e+01,2.184653941210351036e+01,1.903847194875672244e+01,1.384096515086761769e+01,1.354101149629960332e+01,8.547796282328789630e+00,9.093056163854640772e+00,4.978291465655786396e+00,4.857681019134389544e+00,6.765157962038813366e+00,1.226843456648393271e+01,1.000000000000000000e+00
1.600870336722644538e+01,2.238170105473921012e+01,2.089056220620807380e+01,2.657133690764149492e+01,2.254768093012143026e+01,3.449870362606088747e+01,3.142397650584410940e+01,2.392274508483006912e+01,2.233120277064659831e+01,3.011953251335563664e+01,1.831835963545194090e+01,7.928499824966309006e+00,1.323633964147461484e+01,6.912636134380363728e+00,1.031724074237700961e+01,9.091238694145573618e+00,3.820540129460937351e+00,1.166170401294490944e+01,1.110700712927945233e+01,7.682595030019115256e+00,9.107237710032165978e+00,1.118685731252492133e+01,2.001882745367282723e+01,2.278202350104496077e+01,2.092092582905462450e+01,2.200410699918703017e+01,1.687854917240417763e+01,1.550847626970559645e+01,1.641851114686616597e+01,1.278486023856115139e+01,1.000000000000000000e+00
2.982397483166815277e+01,2.240452265460342574e+01,2.710613116499715147e+01,2.339930166640689890e+01,2.275808312606827144e+01,2.371316230878599640e+01,2.540069970820664480e+01,2.615810880798878202e+01,1.853303212772732422e+01,2.207695919864440270e+01,2.194099003264858538e+01,2.716690396989753253e+01,1.018386969556667054e+01,1.609601411985835284e+01,1.172981600942469527e+01,8.941550609928327731e+00,2.180943736154688395e+00,5.266387164140041932e+00,1.085360589556137256e+01,7.929309503127683456e+00,1.262076248286683722e+01,1.484759937610775182e+01,1.331282218345290858e+01,1.029321876604916497e+01,1.431197791638254557e+01,1.229120754109160885e+01,1.709111805407022189e+01,1.994357267154322244e+01,1.732887825022766037e+01,2.171879741977085132e+01,1.000000000000000000e+00
1.238984879692355889e+01,1.731640928467993490e+01,1.836019151377684011e+00,4.591911821392073989e+00,1.080688913217284153e+01,1.175536822058126063e+01,2.286637082060568105e+01,1.431190370959825486e+01,1.564171071725030515e+01,1.755255374958264269e+01,1.407415777320295547e+01,1.639055595830444645e+01,0.000000000000000000e+00,7.242176317978589850e+00,1.302469008790410498e+01,1.830994090721546286e+01,6.889089118031364478e+00,2.783813624750578697e+01,2.557454106706038033e+01,1.987953062925774361e+01,2.144428139862955618e+01,2.822310167904387868e+01,2.785442000532088969e+01,2.228077126550701337e+01,1.291407136962303071e+01,1.421446391361197925e+01,1.920295712516903563e+01,1.554456311861730455e+01,1.607853861583495814e+01,1.084496839297634097e+01,1.000000000000000000e+00
1.859779772620842664e+01,1.843107973412386968e+01,1.901445718276599450e+01,1.958948978728747647e+01,1.023156818076301988e+01,1.706333653481067358e+01,1.860785759978406873e+01,1.798081990061504598e+01,1.392568704063938867e+01,2.023115221729372593e+01,2.080646799540528491e+01,1.867887420769321238e+01,2.587454863705650610e+01,9.288731373331245322e+00,1.304321478119376820e+01,1.218267203705920565e+01,8.394653559532031295e+00,3.911399226865512446e+00,9.519365935912077248e+00,8.588619003918779526e+00,9.844885216810610018e+00,1.620166222884230933e+01,2.317124419142274405e+01,1.029904690326665673e+01,1.107538779018869946e+01,9.924611696287513496e+00,2.286819328549015040e+01,1.924138518368212658e+01,2.225807649302078062e+01,2.029896970526829136e+01,1.000000000000000000e+00
1.991238724868077270e+01,1.098141874914040272e+01,1.606564596456794902e+01,9.546256769240528683e+00,1.403533358990625857e+01,1.259397532699486533e+01,1.788141945447742387e+01,8.429649547029129053e+00,1.496324474754337075e+01,1.161745616669196579e+01,1.041334120714574851e+01,7.481394845382595804e+00,1.760997931108937564e+01,3.988139316321533556e+01,2.821078207077255229e+01,2.040109165472830455e+01,2.889808471980850868e+01,2.010925105204407259e+01,1.352370063950982626e+01,1.626304339556634204e+01,2.266868085866633464e+01,1.591933084562353429e+01,8.125452152513588544e+00,1.193089871730819596e+00,0.000000000000000000e+00,3.431618801131236296e+00,7.697114941568571567e+00,5.431428808071842695e+00,1.270720225041961271e+01,1.358003763818220477e+01,1.000000000000000000e+00
2.929737399592082170e+01,1.898021082930591774e+01,1.401584005279244138e+01,1.297962274320536835e+01,6.364719815431556071e+00,1.251308085210584409e+01,1.388546647634265696e+01,1.805076324485258965e+01,2.028251321850996192e+01,1.047142912341973897e+01,1.185295805798057245e+01,1.549611525686628966e+01,8.522552098050766745e+00,1.722501886553862960e+01,2.141897029689204146e+01,2.253422484993677699e+00,6.680081256100862674e+00,0.000000000000000000e+00,1.748579221695251817e+00,9.395300351438038433e+00,8.810816165355817020e+00,1.324039517431148738e+01,1.840390092425346324e+01,2.522078589748207378e+01,2.373307906176634674e+01,1.853750477479752590e+01,1.809172455390941536e+01,2.256716143571517819e+01,2.369210045728510750e+01,2.527718534931310046e+01,1.000000000000000000e+00
2.051095552218183116e+01,1.664993764094572271e+01,1.043555705640301312e+01,1.802326321205788418e+01,1.568158686681337599e+01,1.143228937527987910e+01,1.198377455786751966e+01,2.658671702099610457e+00,1.098557641747078151e+01,3.612868777918606611e+00,1.656388309419432403e+01,2.908149017251767532e+01,1.678129303127298044e+01,2.117870082521019981e+01,2.265530629752970526e+01,1.654571686153900600e+01,2.268907150206368328e+01,1.378953613027874781e+01,1.440783811268653380e+01,1.377524177287969565e+01,1.589983933549856943e+01,1.712779353857570186e+01,1.140153270729754809e+01,7.266828208838632008e+00,1.090178093527495662e+01,1.804229202144875899e+01,1.383679489865366463e+01,1.661804634931763758e+01,2.030490215193140102e+01,1.076524707508875167e+01,1.000000000000000000e+00
2.947593095955323861e+01,1.768965130556529175e+01,1.980452042442982474e+01,2.308221761987209675e+01,1.129780298109736236e+01,1.478001869369160204e+01,1.566756778688065310e+01,1.733050969974573263e+01,2.436186917605598978e+01,2.424377600069496452e+01,7.149870716670562842e+00,1.363140790659574009e+01,9.068484860134674364e+00,1.796896851000147421e+01,1.788947452298694429e+01,1.552476631774123916e+01,8.398207064252432019e+00,2.668081624678393382e+00,6.133060174430198686e+00,1.174709500342018487e+01,1.396344209331542174e+01,1.571223592184034601e+01,2.109787260374866946e+01,1.492257969744389356e+01,9.519049816529474128e+00,9.832064240884733408e+00,9.470314824226733208e+00,1.536278093166254166e+01,2.557814490063995549e+01,2.689704461136105351e+01,1.000000000000000000e+00
2.509750140655725659e+01,1.858199547147475528e+01,2.177459582906797664e+01,1.837841955818922202e+01,2.070404110213479498e+01,2.915484817819347541e+01,2.632048978623078028e+01,1.280785905504956190e+01,2.174670186355646706e+01,1.830682967574642817e+01,2.096976094332293883e+01,1.502591371570022716e+01,1.436951772340697175e+01,1.678993075503464638e+01,1.855292276982387989e+01,6.494419181794086171e+00,1.124118382145880446e+01,7.169730945458780980e+00,9.651094286566774372e+00,1.328287532296602080e+01,1.598406346674238421e+01,1.498544376337071071e+01,7.820066770038380355e+00,1.207160676858822512e+01,6.525377148731763555e+00,2.013576262071546807e+01,2.155928318682111922e+01,1.642858534729506914e+01,2.646643003719825060e+01,2.066320238786624941e+01,1.000000000000000000e+00
1.885540838108130401e+01,2.113682459761199084e+01,1.245820995654105445e+01,1.272113424275124771e+01,8.405826503259788751e+00,1.115489595668418588e+01,8.864334573733657408e+00,4.609117320431778353e+00,1.893151383183263192e+01,1.033820435934492821e+01,2.179628392926008473e+01,1.857087644981345420e+01,1.896439452676415272e+01,1.504340007311878935e+01,2.381201215101643243e+01,1.622099859437108194e+01,2.697617147851377695e+01,2.235310608408491362e+01,2.322884790070048666e+01,2.233493333867630781e+01,2.013682538379094922e+01,1.930033738157030143e+01,2.232748330310081997e+01,0.000000000000000000e+00,3.913715205629273441e-01,6.475864013791152729e+00,1.706148378052287740e+01,1.952618865732429754e+01,1.766201542471290509e+01,2.621811836038841648e+01,1.000000000000000000e+00
2.578167649304376141e+01,1.627402919465333753e+01,1.358218835416437287e+01,1.660063144718711214e+01,2.597038318117904510e+01,1.564437993449146802e+01,2.147591597021624921e+01,2.553660895291824318e+01,1.689329210940499593e+01,1.406653329866077229e+01,1.999595152432101486e+01,1.818085958573149696e+01,1.069162542724640730e+01,1.364793134087216231e+01,2.115016077459901567e+01,1.968724659333807381e+01,2.149118965723087626e+01,1.390037658886097915e+01,8.307055405052352626e+00,9.016328783188299667e+00,9.652280813370452961e+00,1.348076457610568468e+01,2.211967173127786168e+01,2.031671408519113697e+01,1.544322890853740660e+01,1.098910268437796844e+01,8.139427798038099127e+00,1.020137018323362099e+01,1.636091677215526374e+01,2.358235326025271661e+01,1.000000000000000000e+00
6.464799961447425858e+00,6.986901892201728970e+00,1.768175952723612454e+01,1.478358065463589810e+01,1.892130536271662322e+01,2.252799461919323676e+01,2.414373106695964566e+01,2.579156525521261756e+01,1.724900819444829381e+01,2.432026895422296775e+01,1.456378144992513057e+01,1.742156494326548000e+01,6.647989333737683637e+00,1.030209860733975802e+01,1.408143376268327529e+01,1.621930621928282790e+01,2.039279003466805307e+01,2.249184729026447371e+01,1.474166026463970525e+01,1.163220029259770172e+01,1.758234343196022564e+01,1.173292258159972334e+01,7.259207017012471397e+00,1.487091887701140536e+01,1.840542331158292200e+01,1.511243383953851094e+01,2.329123956052998778e+01,8.982194151251917447e+00,1.148620259400399846e+01,7.427195231903112926e+00,1.000000000000000000e+00
1.917398017068532567e+01,1.898274175746385595e+01,1.486038062242681690e+01,1.546524256450345547e+01,2.728707249723771611e+01,2.166914479675958205e+01,1.935391546162952636e+01,2.128103705442075011e+01,2.322698422052306455e+01,2.324854508337148218e+01,2.467435298356255657e+01,3.276384648901085939e+01,6.033601713962895019e+00,2.199468035146924194e+01,2.808735569094960738e+01,1.998242961134724283e+01,1.461172298977493256e+01,8.578581494459001533e+00,1.191133815593070722e+01,1.247210444387371808e+01,1.111150988577011844e+01,9.382744392536238820e+00,1.100299805800599984e+01,1.353530555623629539e+01,1.099100749355551443e+01,5.494269277297178178e+00,1.651751330141581775e+01,1.015910553721735710e+01,2.144636919323463076e+01,1.837587435328180163e+01,1.000000000000000000e+00
1.407795250675675902e+01,1.706408374317121002e+01,1.013765779613856921e+01,1.329051314860004140e+01,2.014565533043258938e+01,1.334971332659435461e+01,1.970499898377315162e+01,1.405762603307113068e+01,2.599959220446768882e+01,1.863397109572301247e+01,1.574445168312703913e+01,8.727915399817419484e+00,8.698958515529454871e+00,2.051424277539254604e+01,2.795137339253031428e+01,2.336885751676226164e+01,2.289395748370336037e+01,1.760941472858164047e+01,1.680238821798090498e+01,1.942785255405448197e+01,2.121735588739565515e+01,2.422289497506639577e+01,2.230577311921368278e+01,1.013379916279760096e+01,4.685179950923554770e+00,4.741162877237144357e+00,1.100252068636203262e+01,5.282484795809921252e+00,1.401407897725613338e+01,1.314149368481199076e+01,1.000000000000000000e+00
9.885940640951361047e+00,1.697578306820571470e+01,1.365212960152896926e+01,1.615385384487876763e+01,1.775698938914689506e+01,2.383361253097845633e+01,1.979809375797762527e+01,2.263905361417778295e+01,1.989967126811683329e+01,3.463712337975218247e+01,2.160286186605861758e+01,1.892307090392253599e+01,1.066376995964654384e+01,1.578995106140587268e+01,1.623833496571052137e+01,1.544157166012371363e+01,1.546553038053372120e+01,1.559142768404737467e+01,1.700787935863516509e+01,1.825425421313303787e+01,1.363516419661968371e+01,8.904730061920673734e+00,1.571910643774762661e+01,2.436786150898794290e+01,1.892486174764880502e+01,1.199310447870215057e+01,1.247710555848271952e+01,7.765797415927323755e+00,5.434022395419390250e+00,1.308371828046833230e+01,1.000000000000000000e+00
1.918232698581067552e+01,1.364227761514723625e+01,1.247508651219271769e+01,1.717786740100947895e+01,1.589289429527127595e+01,1.472503379892600606e+01,1.771204166394218760e+01,1.564014531350062498e+01,2.115195635286892184e+01,2.580162217622529397e+00,2.202552313427662511e+01,2.502831039781858635e+01,2.791502291207697795e+01,1.173120134910797674e+01,1.900605063734263922e+01,1.656113219275121651e+01,1.223429333323258561e+01,1.866898926300913786e+01,1.563913491997914207e+01,7.799821993349354443e+00,9.608043099942705112e+00,1.959120981244208792e+01,2.457964411271001381e+01,2.031645047750444633e+01,1.161088333656391569e+01,1.465998955615049226e+01,9.570569552368027644e+00,1.475471476407284399e+01,2.084821461895228367e+01,1.110377240106984686e+01,1.000000000000000000e+00
2.226829122466352828e+01,1.507501187381342334e+01,1.125040119040173181e+01,2.721907867691345473e+01,1.614613766017487251e+01,2.282883024924632309e+01,1.647729379886152401e+01,2.582321053250299769e+01,2.443337476906188499e+01,2.182346928871780278e+01,2.282056305534538865e+01,3.258775280369650318e+01,1.904964099415261103e+01,7.769360119471656390e+00,2.025288600748120871e+01,1.361908524948321997e+01,1.969170999680213185e+01,1.098715385550465840e+01,8.946350479117228360e+00,1.068293177323985788e+01,1.416196859584638901e+01,1.237621054614885452e+01,1.047918368753033747e+01,1.692582416211814689e+01,2.121708914081565922e+01,1.053919449669302821e+01,1.200438647337915654e+01,4.526575643437581675e+00,1.768386911772077497e+01,1.390687996397238635e+01,1.000000000000000000e+00
4.835681044044889632e+00,9.964377359955193469e+00,1.219833787127066671e+01,1.079771780843759643e+01,1.306681978534410860e+01,2.008052378910778657e+01,2.293762646676646000e+01,2.568553943721789778e+01,2.425714524744682876e+01,3.008544259673655574e+01,2.678435244202009358e+01,1.586534744378258210e+01,2.512130591137136548e+01,1.224054942283831338e+01,9.035503348741769969e+00,2.243215488186328344e+01,1.193871330251025142e+01,1.859043441192559953e+01,1.471496868867782837e+01,9.047639963031940624e+00,1.458043056324058284e+01,9.358836790721483112e+00,1.209464905522682443e+01,1.743021484768786422e+01,1.300348103724320481e+01,1.358052022430888428e+01,8.986601691846459516e+00,8.367004724159443185e+00,5.638377333047543516e+00,1.681990739214265318e+01,1.000000000000000000e+00
8.799953791109828671e+00,2.689248562240067031e+00,8.933546962311851303e+00,1.118401384055769654e+01,1.184208506594404753e+01,6.503677109103506382e+00,2.343377588631358321e+01,1.666405205260733169e+01,1.710147811439131260e+01,1.709010024935000160e+01,2.148937045975000615e+01,1.051719720421021975e+01,1.178945845372507506e+01,1.778284471179469506e+01,2.866452252062919115e+01,1.604101591506272939e+01,1.631903770102766771e+01,1.308357414625868387e+01,1.934197131366084932e+01,2.076602356971281438e+01,1.386617736229447928e+01,1.930151016572588674e+01,1.959404637519216408e+01,1.284495009537943133e+01,1.334123662499894181e+01,2.777748220597922568e+01,1.354665735151345984e+01,8.766040001021195849e+00,7.646804951097635694e+00,1.161440788108993161e+01,1.000000000000000000e+00
2.135267719510764550e+01,1.627536478617571447e+01,1.980776319094968585e+01,1.708656838124514366e+01,9.151587342597338193e+00,1.353742850457302893e+01,1.849107830102627759e+01,2.611501259525203977e+01,1.545704811233528631e+01,2.626345947996901486e+01,2.619690705032118672e+01,1.787361600052713584e+01,1.596727912868303179e+01,2.529136443056069083e+01,1.903800635857257362e+01,2.416844068858100059e+01,2.138090947747849668e+01,1.809431318375527553e+01,2.075500612147988022e+01,1.660573083491158286e+01,7.163249821432486897e+00,3.378798102080878607e+00,1.070161269758244771e+01,1.443528835883066108e+01,1.468043817351798452e+01,5.314212119928555467e+00,1.065528239304825320e+01,1.187837452074614930e+01,2.041569060961469972e+01,1.429500646502293648e+01,1.000000000000000000e+00
2.612414262054932124e+01,2.088421097017044303e+01,1.020790866748487247e+01,2.194635188458144626e+01,2.015486952283131927e+01,9.224101869805423348e+00,2.503153546578789701e+01,1.312709532432714354e+01,1.845026123231156134e+01,1.242563226336480398e+01,1.823432812344958620e+01,2.218041299396676891e+01,7.959106858419488617e+00,2.010369768035894822e+01,2.607825458131625851e+01,1.823328712241163885e+01,1.810168746915729798e+01,7.436183110835031584e+00,5.716521624356062148e+00,2.872687514045878743e+00,8.270984534659362453e+00,8.684994281634715207e+00,6.184518528601984144e+00,1.534996306616758943e+01,9.921764481025661553e+00,1.329073640997165739e+01,1.789277468744933230e+01,1.443457883124128216e+01,1.700448028337777373e+01,1.584792832394649054e+01,1.000000000000000000e+00
1.254454260968347512e+01,1.522531636609744510e+01,1.225240513703226952e+01,1.012175836649004168e+01,1.408490077429152620e+01,2.116230558904169357e+01,3.089852763214159381e+01,2.390595575137126616e+01,2.127397272632933323e+01,2.469064200811121168e+01,1.429309076631227526e+01,1.837340666081476570e+01,8.399520062478359250e+00,1.474146570761897124e+01,2.463776619096134368e+01,3.026748908099992263e+01,2.140936662896211828e+01,1.840564277423723638e+01,1.644933768331452484e+01,1.261038584812283148e+01,7.959104305548578395e+00,4.976938809077523729e+00,1.254154839317729397e+01,2.065714542345182281e+01,1.092852202199688350e+01,1.375720949954560979e+01,7.727335488291629417e+00,1.248619631192863721e+01,1.473739805402078673e+01,9.005822101775635247e+00,1.000000000000000000e+00
1.608006819451642855e+01,1.343186116811506281e+01,2.359875129911651470e+01,2.103375519290571560e+01,1.512138292104359039e+01,2.329431280486559785e+01,2.616793498629442638e+01,1.791138755298138108e+01,3.273253672651995316e+01,2.215195157459876896e+01,1.866248732939536126e+01,2.742964721139824746e+01,2.486958076917520089e+01,8.774771951204570541e+00,1.777788777942666343e+01,1.953992343295632850e+01,1.025889769491206494e+01,8.909046497514651719e+00,3.701345733937017712e+00,0.000000000000000000e+00,6.149427552808901964e+00,8.772834138109715241e+00,1.461881126378924023e+01,1.373017835255370755e+01,1.541078116937796949e+01,1.498655712932159645e+01,1.562661104847515503e+01,1.601935529732779173e+01,1.396343350496326252e+01,1.466193813453324424e+01,1.000000000000000000e+00
1.884169517072018607e+01,1.710557069094303984e+01,1.341309646424949165e+01,1.485042823841115478e+01,1.332449537907535841e+01,1.948608343077387417e+01,2.118489542435423800e+01,2.772876675237515087e+01,1.997735084052513344e+01,2.746193536079104547e+01,1.829769826070909744e+01,3.061313336573252286e+01,1.037110815433996436e+01,1.670365211633514946e+01,2.741625735933985197e+01,2.488199727757464075e+01,1.188935478086324338e+01,2.373358454026657682e+00,4.130132426994521211e+00,1.208373861485287648e+01,1.763554334023061188e+01,1.682786165318140092e+01,6.633549986279376753e+00,9.243483647297409789e+00,9.636296647911080981e+00,7.370913022611887300e+00,1.134681419867496288e+01,1.270837132876101805e+01,1.180788867278960197e+01,1.143673921689185136e+01,1.000000000000000000e+00
5.202192190678857742e+00,6.708784376903111024e+00,9.595561261809052667e+00,0.000000000000000000e+00,6.181465932140781661e+00,2.837793075311765278e-01,7.873984913714622280e+00,1.555262970080170248e+01,1.831943055596318004e+01,1.619179882456143105e+01,2.286115301141870759e+01,2.386921318641543621e+01,1.469444373159834072e+01,1.909033910145311097e+01,1.581483844403999228e+01,2.576180582035075872e+01,2.246137098454303782e+01,2.445522813385329641e+01,2.375469538922189372e+01,2.525276566658428123e+01,2.121890852909456271e+01,2.067572738220468409e+01,2.518615817822796998e+01,5.130410895658457093e+00,0.000000000000000000e+00,1.308090847608380614e+01,2.270626608608881725e+01,2.442920192812900382e+01,2.891788214876328311e+01,1.039107159100856848e+01,1.000000000000000000e+00
1.303658086861400989e+01,1.247087372462561916e+01,1.773708688754771856e+01,1.385962867989741198e+01,1.968007710880769423e+01,1.339593186401447156e+01,2.000412085242712124e+01,2.336581296405037733e+01,2.460859353117581350e+01,2.352653574661971447e+01,1.759745912742624796e+01,2.003866994420411629e+01,1.580336098824415103e+01,1.540156419419611211e+01,1.229501471644903177e+01,2.356432141622258314e+01,1.466340399386055537e+01,1.799374969063680396e+01,1.735376748977290617e+01,1.303274157008988254e+01,1.130830058297965479e+01,7.527469200727978205e+00,1.261711810564938219e+01,5.908064143141814384e+00,7.834682234578309590e+00,1.790622724102615848e+01,1.364033552174819874e+01,1.683942073762901259e+01,2.390065102581459655e+01,1.351535249616136980e+01,1.000000000000000000e+00
2.215055318597134715e+01,1.541613061849091082e+01,1.493458672728516490e+01,2.314723290811818401e+01,1.488209184929232265e+01,1.892592577433967449e+01,2.008156807994393489e+01,1.963751617913351311e+01,2.528833516391213720e+01,1.922855923582324067e+01,2.796503133807669883e+01,2.063502089946985052e+01,2.208209598338007140e+01,2.291764995769938196e+00,1.744563865272536418e+01,1.784377976392991627e+01,1.562515415119270301e+01,1.054937657057317324e+01,1.284546894473967882e+01,1.174901640065041875e+01,1.095398406941950498e+01,1.846036194463496827e+01,2.118878268237909879e+01,9.551566879183610581e+00,5.753547726053227507e+00,1.798812015561750854e+01,1.060652456825252443e+01,1.413961305482567354e+01,2.002797629311166361e+01,1.548563429940233505e+01,1.000000000000000000e+00
1.236267434342497040e+01,1.814569089318854367e+01,1.600702474944699816e+01,2.173337505566473737e+01,2.168957388593071300e+01,2.953936558253190015e+01,2.508048693144962726e+01,2.026054997009276804e+01,6.728781138247654781e+00,1.815985375482040354e+01,1.954662369146100787e+01,1.983502756106517495e+01,2.719655644132254224e+01,2.395989261103488843e+01,3.790156207953029366e+01,1.961488415494883952e+01,2.192139978710693526e+01,4.236660772956469145e+00,9.565604108913674963e+00,7.640102747686057683e+00,4.391481849558147132e+00,3.597617865176346186e+00,1.488316597502375771e+01,2.298083145412093131e+01,2.284840183236005373e+01,2.115095995052286071e+01,2.191976017783568409e+01,1.870062547010297749e+01,2.015930126485491769e+01,1.439252725267635924e+01,1.000000000000000000e+00
1.587285110335517402e+01,1.359089452918357210e+01,1.180361389144846385e+01,2.719611696084936625e+01,2.958345524749640276e+01,3.130930509853686772e+01,2.854699728078426801e+01,1.844653557402870092e+01,2.623015956817422989e+01,2.238604485672885858e+01,2.621366533311842772e+01,1.722022401749075016e+01,2.149603348367574540e+01,1.192003258865284465e+01,1.692877522286391923e+01,9.158531303207496421e+00,2.044828457743295758e+01,1.902786851150997904e+01,1.753727586028975338e+01,5.914872156048716079e+00,1.134795451691377366e+01,1.332716846347955197e+01,7.421769920965004985e+00,4.873562840237184446e+00,4.658815988894104976e+00,1.559775272787300082e+01,1.189441771032707607e+01,1.787118706104183730e+01,1.959830110993308949e+01,1.572789027562285469e+01,1.000000000000000000e+00
6.582638976006847997e+00,9.773258359814889218e+00,1.241907820444308186e+01,9.626445010674530067e+00,1.503748743555593137e+01,1.379165434545632252e+01,2.491827472400456145e+01,2.041564350618341450e+01,2.392463381247324605e+01,2.300326775307991056e+01,1.807270739936691939e+01,3.139264986827896564e+00,2.296150730637930337e+01,2.176082167045618121e+01,2.448252881667428937e+01,2.621046431403482302e+01,3.154700767428246877e+01,1.566411133739268280e+01,1.810633090283667457e+01,1.548467953580626499e+01,7.757847281333141609e+00,7.346652380164726992e+00,2.198421472507195062e+01,2.022249151142082724e+01,1.174679776740970283e+01,1.512451653623253378e+01,5.175330528036852229e+00,1.761690519383776632e+01,3.989840871464167549e+00,4.869369699193015322e+00,1.000000000000000000e+00
2.234168025466919971e+01,1.869670760624924810e+01,2.416572122409237977e+01,2.617192268222768803e+01,2.452544493228015199e+01,2.077604941356520385e+01,2.540639894309893521e+01,1.614178212088489772e+01,2.877626437708215690e+01,2.599552766174267049e+01,1.805086212263009315e+01,1.446105980931886847e+01,1.745783021640508537e+01,9.425781557676430111e+00,1.760387539668806767e+01,1.205815899672387559e+01,2.175567290178582880e+01,1.135703531592642435e+01,1.198032225026545916e+01,1.314237558320436960e+01,1.359661189911480506e+01,9.104544191935758590e+00,6.468135048674014342e+00,8.453643626329323979e+00,1.007550626262934657e+01,1.414153509805922226e+01,1.571292731290620281e+01,2.033751752932931822e+01,1.468447282404247289e+01,1.846636011797761512e+01,1.000000000000000000e+00
1.227246994180595152e+01,1.627807061396723043e+01,8.310186558789325773e+00,1.294538042074995587e+01,1.867531827518064347e+01,9.541488869570542874e+00,1.519514018293443769e+01,1.885218109678726250e+01,1.198915212362604166e+01,1.728152795220907478e+01,3.485020332739594551e+01,1.018989511677756354e+01,2.039064727303772884e+01,1.906724190735877755e+01,1.894186850843402681e+01,1.688529685644763845e+01,1.729801099797703046e+01,1.598054481673386817e+01,2.009610722931171267e+01,1.314862864214362048e+01,8.395315637773848039e+00,1.641370109107808162e+01,2.432397762491169146e+01,1.541241149876259442e+01,1.146563987905972226e+01,2.095643047110911539e+01,2.518690649881202148e+01,2.392566297851698209e+01,1.951891965395842021e+01,1.695039140806861155e+01,1.000000000000000000e+00
1.826988565873716652e+01,4.403734918431297274e+00,8.152195361281712849e+00,1.563600374942248550e+01,1.029636369353835335e+01,1.176749779404070750e+01,1.639434947337966264e+01,1.832244814319565762e+01,1.300314829749342493e+01,2.283892866895280349e+01,3.686240534227437138e+00,1.521589172822157821e+01,1.838238440405694973e+01,1.354501364925826579e+01,1.959266774740859773e+01,1.895569728317587987e+01,1.391338840183152570e+01,9.648326530618930974e+00,1.300333190042681508e+01,1.575768177706001438e+01,1.397029689342352299e+01,1.364141802350249577e+01,1.730519112980857699e+01,1.693264763033357667e+01,2.558912493404807265e+01,1.870506643334039154e+01,2.047206300974221449e+01,2.127123700800467532e+01,1.454462168003180977e+01,1.396982408445416013e+01,1.000000000000000000e+00
8.996834905823959616e+00,1.241189151111061051e+01,1.153326202068001294e+01,2.308400561501215975e+01,2.576598963254761543e+01,1.905015737838775181e+01,2.451125630087346963e+01,6.723985965739160520e+00,1.790121143849015084e+01,1.300427949407091432e+01,1.806016246444016815e+01,2.056811726683494612e+01,1.966012689024080373e+01,7.969818069407665462e+00,1.384552790540925571e+01,1.407912075387724826e+01,1.461813507537877399e+01,9.018513002267638967e+00,7.104085282943174207e+00,4.699929842230261556e+00,6.608811642729421010e+00,5.660176896039331496e+00,1.535357722932201341e+01,2.353914346643063027e+01,2.435452179513964666e+01,1.660892355472174131e+01,1.632307396144599920e+01,1.393960432683280715e+01,1.249425703389678688e+01,1.496126909804911520e+01,1.000000000000000000e+00
1.970790823083419241e+01,2.195716560719253607e+01,1.247734000536593157e+01,1.670523255509863247e+01,1.611636952637610420e+01,1.795400176079763810e+01,2.010316358140136117e+01,2.305937798050291576e+01,2.727972297617228037e+01,1.848859470419571949e+01,1.434621343342089972e+01,2.738607650459258025e+01,1.767636113297547240e+01,1.215771973776034542e+01,2.254666283886137990e+01,1.848887032947862963e+01,1.999323113016552611e+01,1.151616244134106637e+01,1.185875875607331409e+01,1.240544810503138251e+01,1.091802633601557204e+01,1.093772325988237526e+01,1.730808849306680486e+01,2.124677045636121875e+01,1.357495139046750410e+01,1.132118444463745277e+01,5.679293302290687961e+00,1.600277417886852049e+01,1.223131595325318699e+01,1.568267710718814101e+01,1.000000000000000000e+00
1.451417817524875886e+01,1.801395357792785035e+01,7.200585867123891148e+00,1.498693233668558378e+01,7.111248277034121656e+00,1.450613575908161579e+01,1.173099274397338831e+01,2.542894793557195499e+01,1.199229769118605304e+01,8.202649696018568193e+00,1.434510382589616029e+01,2.006050113195473728e+01,9.596439452659723202e+00,5.305592510835140274e+00,1.837102758573874439e+01,1.267112221389706406e+01,2.086361490445844424e+01,8.630829151345380978e+00,9.363975948414889672e+00,6.328900275020316712e+00,8.256213435967566738e+00,8.354624046334663490e+00,1.107270011115210195e+01,6.566440585464278001e+00,5.556240876255884586e+00,1.126033878301092273e+01,1.619244060250275652e+01,8.977032330738296650e+00,1.205219025705224567e+01,1.022775666293279073e+01,1.000000000000000000e+00
9.575048834572953638e+00,5.674614517537833080e+00,1.051242371743074955e+01,9.631467587177723999e+00,1.640777373320793231e+01,2.064178006385714070e+01,1.961429747053674078e+01,9.243509064121951724e+00,1.928096783464272335e+01,1.667219616497979473e+01,1.734556287651551543e+01,1.254741870251854152e+01,1.649655588175872367e+01,1.320979341804573437e+01,9.369281088394359358e+00,2.553082841280786397e+01,8.352589873393412745e+00,1.618547200547286025e+01,1.460435464692963592e+01,1.113945443968955828e+01,1.344122670024421495e+01,1.408035927140511490e+01,2.271813429552506136e+01,2.504983201355409506e+01,2.427442886659349597e+01,1.050308464280951171e+01,1.393747877668567980e+01,1.215871756929990966e+01,3.148371520476104024e+00,1.344523540853029431e+01,1.000000000000000000e+00
8.699316632723366638e+00,3.114971661664299063e+00,5.911801818621256643e+00,1.069671680751534382e+01,1.467584832292419605e+01,1.717077113646976727e+01,1.825174924171702173e+01,1.430832150107281109e+01,1.844638436481372423e+01,1.889310943545362420e+01,2.090951635729442160e+01,1.374955721187103563e+01,2.102078893941356341e+01,2.785710066497276216e+01,2.592846206910058982e+01,2.859212298151950904e+01,2.166882453901288841e+01,2.295718064559395089e+01,2.050595011494797859e+01,1.774815472979472020e+01,1.670057101819770651e+01,1.320619609916184345e+01,1.053720492060139691e+01,2.440682519898800251e+01,2.754257379572322861e+01,1.710452721692257683e+01,8.403025359400970729e+00,1.236032484711401480e+01,4.342654629997070970e+00,4.312763778331742515e+00,1.000000000000000000e+00
1.360931207510776630e+01,1.302306429303305890e+01,2.581380832587217355e+01,2.222081076825554646e+01,1.805249086189462560e+01,1.840346468543160086e+01,1.206453819360595503e+01,9.165537689615263162e+00,1.640287673939121760e+01,3.133141919691564681e+01,2.255200241791109761e+01,1.977363799896485830e+01,2.315578944786847160e+01,1.647863502685245862e+01,1.779208292446551809e+01,1.173416609072282313e+01,9.930744245592677544e+00,1.028707802866026100e+01,1.176707431979656349e+01,1.702616982490280861e+01,1.290946815473819242e+01,2.679904730460236806e+00,7.056470258567799192e+00,1.219085589920703683e+01,7.128623692574706183e+00,1.310176099928565918e+01,7.933313062096573276e+00,1.472722723724191951e+01,1.888834266095071257e+01,1.891389757304287400e+01,1.000000000000000000e+00
3.425373012088869018e+00,5.656993728496246376e+00,1.401694511493369077e+01,6.330444781751566552e+00,2.055133724340467438e+01,1.237255290732369417e+01,1.908877260444165813e+01,2.438979554874003952e+01,2.229117699705366817e+01,1.901236631620511730e+01,2.663585285887648979e+01,7.407036823952637405e+00,1.504361758274171734e+00,2.447715591911332922e+00,1.669272989182309175e+01,1.961416436229202986e+01,1.123708070123527136e+01,1.557886770727677117e+01,2.904938365077640583e+00,1.126393122099437960e+01,1.106692633948841831e+01,8.119624040352391603e+00,7.440215371500954689e+00,7.518782134476111878e+00,1.849372623375398916e+01,1.680519067268991762e+01,2.724144150196244141e+01,2.403227553418838625e+01,2.867352258170356549e+01,1.433171766881355325e+01,1.000000000000000000e+00
2.872546908003386079e+00,4.118014212745947589e+00,1.555158208290245625e+01,1.675903673050163434e+01,1.004722905455756177e+01,2.362556489629960765e+01,9.816879008766818515e+00,1.232249997883124593e+01,1.295478036089579632e+01,1.651378988471012121e+01,1.964110282145929887e+01,1.133134949373501854e+01,3.135090508988872671e+01,2.866600147314491664e+01,2.916895917831897123e+01,1.855940960743478740e+01,1.956163741026603020e+01,1.954964869039383757e+01,2.583301567207396943e+01,1.301596471147220768e+01,6.767523338907466268e+00,1.871960207823073574e+01,2.751904253110316745e+01,2.409952879395856939e+01,1.971507646356923260e+01,2.339633172571160458e+01,1.106922611961024927e+01,4.365025957720462202e+00,8.876688702809900633e+00,7.971357194811531599e+00,1.000000000000000000e+00
1.138672017264821079e+01,1.602333184379853037e+01,1.934477598155052647e+01,2.508367841013023281e+01,2.390862846599767977e+01,1.919699368776625192e+01,2.091006841690958140e+01,2.124914017140207534e+01,2.815155209475199172e+01,2.199516158606616045e+01,2.837974203191228639e+01,1.347253186402454617e+01,3.556493466232780065e+01,2.081945978144352694e+01,2.676862330998136486e+01,9.838304918935307342e+00,1.502434043087401960e+01,1.542402651068155706e+01,5.529202877825866835e+00,0.000000000000000000e+00,5.693265893225998298e+00,1.328729412067730209e+00,6.806117918200413897e+00,1.368934933305584423e+01,3.087727131618089516e+01,1.550317309602917248e+01,2.195296721111603233e+01,1.795624004082674219e+01,2.602992205918587842e+01,1.582194346416068242e+01,1.000000000000000000e+00
1.276119785626769954e+01,1.632943261017084069e+01,1.176824705134978899e+01,2.116637473094371558e+01,2.030544104812338446e+01,1.820550497343478469e+01,3.255964836565399878e+01,2.038630121003023987e+01,2.341762857557253596e+01,1.844889223964108282e+01,3.101935396842878845e+01,2.064710624320215970e+01,2.516907917135554840e+01,1.754783348803786680e+01,1.936036693741317549e+01,9.290513531130329739e+00,1.602948856480296058e+01,1.739224551702716326e+01,1.614528618726541254e+01,6.386723540907496499e+00,6.847646364376942074e+00,6.436402589420538334e+00,9.039623107013738945e+00,1.683647059544526314e+01,1.659426004183001169e+01,1.767465126963426769e+01,1.365902357549092017e+01,1.103258450379885858e+01,2.553408221230822051e+01,1.208963278343551906e+01,1.000000000000000000e+00
1.892037728611862235e+01,1.833971525132250235e+01,2.738084477809695727e+01,2.644854300407530445e+01,1.902710136514247097e+01,2.198719571909143156e+01,1.355914697434036498e+01,1.440422444836926275e+01,2.169589820774297095e+01,1.261010211117124413e+01,2.017849746383436127e+01,2.355513095255594180e+01,1.754608207668442788e+01,1.386381366578979168e+01,1.017973770021075097e+01,1.314027170790754440e+01,1.742786676634585774e+01,1.618870211039066476e+01,1.366018730259392555e+01,1.223259149778340316e+01,8.770251095145852105e+00,8.355034688025824607e+00,1.808580988505224241e+01,1.457801723886086620e+01,1.485440213770516493e+01,1.266000986643976489e+01,1.817070607094842671e+01,1.239563048518505184e+01,2.322145603821573445e+01,1.179844541696908777e+01,1.000000000000000000e+00
2.184660027323567988e+01,2.559623775792286438e+01,1.556409195609595031e+01,1.743816271317970745e+01,1.486331032609734848e+01,1.162076993024541594e+01,9.600157277987619864e+00,1.284755628366073665e+01,1.973355297026341759e+01,1.215926308975392089e+01,1.295558056012151837e+01,1.811678075486926787e+01,2.494415008066101791e+01,1.149580929406710084e+01,2.282681419497345132e+01,1.949294685655002013e+01,1.276907152614356278e+01,8.233150645003064483e+00,8.638715382639389873e+00,1.037977346469600093e+01,1.029781388090077598e+01,1.398853118823120667e+01,1.312730538848333595e+01,1.565640318738167025e+01,7.138597064704839568e+00,1.426910564513687518e+01,1.506417875085662672e+01,1.799721506946008276e+01,1.744134437333130450e+01,1.992732831842226915e+01,1.000000000000000000e+00
9.511022381211461152e+00,1.317376489543468665e+01,1.783980013122763353e+01,1.356691718803986646e+01,1.360812891758297383e+01,6.151124017835968516e+00,2.356587873340677675e+01,2.224600912792183749e+01,2.061346759073066437e+01,0.000000000000000000e+00,2.428392085193078742e+01,1.534192415500987750e+01,4.029737193196467615e+00,1.846936869125784142e+00,3.064381805368242340e+00,1.409812650116325017e+01,1.854108654671659906e+01,1.462611956090816534e+01,8.225400587164301669e+00,6.959872725996632425e+00,8.290768170007766003e+00,6.397355848493475605e+00,1.183143700993724678e+00,1.557969089463404089e+01,6.727037980704210440e+00,1.645639579375824724e+01,1.391502269921764423e+01,1.889729574225091824e+01,1.223452625436755170e+01,1.101932034406547700e+01,1.000000000000000000e+00
8.082634776138974075e+00,6.402393008830557619e+00,2.179942531813296114e+01,1.765081358279331880e+01,2.040274349241875029e+01,2.011579163891599364e+01,2.517500482438151721e+01,2.672803359466874440e+01,2.470764993278368138e+01,3.139135804080589764e+01,3.021578666972092719e+01,2.532857516776550710e+01,1.356192218805441030e+01,2.104525639876626997e+01,7.622857377435479975e+00,1.077183725311618900e+01,1.599876129708815142e+01,2.088145925970783878e+01,2.015623786710756349e+01,8.845409399869993194e+00,9.705361019612183782e+00,9.448909962495093851e+00,1.136994886297472362e+01,1.177776089949750826e+01,2.114270152939045033e+01,5.834781427212419658e+00,2.419711039921136830e+01,1.076687075355886236e+01,1.584120622556278590e+01,7.709034536650307246e+00,1.000000000000000000e+00
4.175751068952962441e+00,1.300986105119801550e+01,1.868692388255823289e+01,1.301864860906988497e+01,1.516751244405458010e+01,1.583633867758069869e+01,1.379063605521139380e+01,1.957056529707875825e+01,1.420270960996199960e+01,2.506990226944000710e+01,2.154566104655964409e+01,2.487539257111927782e+01,3.193022872933906342e+01,2.805071811178063967e+01,1.738544115721791172e+01,2.103379769979781599e+01,1.950781145615556511e+01,1.579744276368165856e+01,1.898755950148256488e+01,2.061187265698822557e+01,1.829310070814631217e+01,1.672443489671422867e+01,1.750344507163515573e+01,1.222837093399868991e+01,9.772532841057113728e+00,2.251162450275529636e+00,1.219579887749407021e+01,8.979932974009813051e+00,1.826560510503864521e+01,7.663132052596864696e+00,1.000000000000000000e+00
7.577971949324762591e+00,7.055300942903755868e+00,5.437439283161751291e+00,8.395939684775669321e+00,8.592876692919219295e+00,2.200199731295271022e+00,2.027972715824256511e+01,1.497466705292657707e+01,1.433416713898967032e+01,2.239502659242739924e+01,1.747432435202156853e+01,2.842054325922950397e+01,1.197139031068957138e+01,1.259640978467191985e+01,1.392970259212012252e+01,1.577776597012010029e+01,2.356831267279014241e+01,3.128527515469320974e+01,2.281414905641776159e+01,1.277221784338863131e+01,2.179943428560454777e+01,2.854500564193600098e+01,1.390072510110550752e+01,6.149884177892261050e+00,1.387724758312029394e+01,1.818340251639179428e+01,2.530973588239976380e+01,2.158729329862129021e+01,3.016245206182114202e+01,1.416616528122071372e+01,1.000000000000000000e+00
6.512845093433412558e+00,1.888407078241289128e+01,2.051307370155345211e+01,2.452109495798046623e+01,1.704060420352664096e+01,1.823487195318617182e+01,1.802690268312915123e+01,2.295249360866057486e+01,1.989537289950493459e+01,2.885132201662557350e+01,1.723298769886307014e+01,1.992963366062411978e+01,1.723118794653260011e+01,2.655496774252191017e+01,1.384742141351813416e+01,2.174053211363141713e+01,1.362067941865683451e+01,1.579925210944813330e+01,9.157754687092563017e+00,3.587705282104167281e+00,7.196551858580676253e+00,3.967715411977764006e+00,1.175110365249085476e+01,1.044985279080731289e+01,1.693644067357649874e+01,1.509885470382050698e+01,1.451604888418580686e+01,1.426361744569913981e+01,2.252296391167422485e+01,1.393496350169002085e+01,1.000000000000000000e+00
1.589515650208076636e+01,1.398871392539334124e+01,2.228080961064642906e+01,2.575126550716424845e+01,2.727689116482974896e+01,2.182629963943637108e+01,6.549678671232214811e+00,1.291802563101526857e+01,2.054876860188159071e+01,1.859347869852345525e+01,2.229410702906420738e+01,1.045445010116367257e+01,1.293332984928332507e+01,2.313382404565004435e+01,1.148631976189597026e+01,1.764576527482253709e+01,1.297464674934727213e+01,2.019194849165225492e+01,1.665289434005518387e+01,1.147833736334871446e+01,8.056190242990851402e+00,8.108058550761114702e+00,1.107924577187077375e+01,2.160280192523032383e+00,1.458689876873805247e+01,1.709509985217897565e+01,1.949977658615944165e+01,2.318020406515148579e+01,2.446884782024727656e+01,1.988024595725826771e+01,1.000000000000000000e+00
2.215744850590192527e+01,2.198711136035097979e+01,2.975394041359868424e+01,2.409220358048742128e+01,2.005800221052410848e+01,2.605253520882394014e+01,3.083960081220027405e+01,1.485856951344774757e+01,1.521212708928513280e+01,1.856961889755092443e+01,1.690946065102508555e+01,9.955518098352030165e+00,1.910579546179218369e+01,1.696925371373893654e+01,1.884627538459753282e+01,1.019149857990865371e+01,1.337447421132586101e+01,1.701271921052659764e+01,1.397828420980908959e+01,1.259325331496506806e+01,1.107660125377813642e+01,3.075092634127173596e+00,6.680460474364991796e+00,1.803499117607924518e+01,1.353844684962871270e+01,1.821019057212581060e+01,1.756953912210417457e+01,1.317973485880293083e+01,2.126734540634896575e+01,2.245465499662387288e+01,1.000000000000000000e+00
1.870035993724090417e+01,1.643805447320877988e+01,2.217837534790973564e+01,1.431315064999753872e+01,1.763994596620085531e+01,2.154688901351647701e+01,1.431381240549734457e+01,1.390725003745981780e+01,1.091252214394077669e+01,2.120925207312868110e+01,1.298352770938512890e+01,1.710939355118955518e+01,4.656111255883871536e+00,3.285110679759537788e+01,1.376727865728531697e+01,1.664307603109537581e+01,1.324977116652323161e+01,1.102353084352850487e+01,9.032976210168044418e+00,6.114858618853190819e+00,1.128522102620524947e+01,7.048599162758421244e+00,1.308402963821009735e+00,1.152809679654663455e+01,1.195468061582562314e+01,1.812196861069620013e+01,1.725273138149637475e+01,1.593764471234584335e+01,1.106895545335407860e+01,1.332182025141253234e+01,1.000000000000000000e+00
1.923953174044768843e+01,1.470620821662245703e+01,1.895656156820933802e+01,1.773983218497409098e+01,1.746288817422782813e+01,8.595763816957997960e+00,2.765515641753222553e+01,2.519189768175326094e+01,3.039342373753495963e+01,2.475599199524336314e+01,2.423403962934349920e+01,2.324427795372722017e+01,2.178995614267719816e+01,2.591696588120174738e+01,2.098675688391003291e+01,1.381637984688961751e+01,1.546236255486132904e+01,1.875693777697208020e+01,1.453113144278501068e+01,7.880031293103542112e+00,1.038487760967231566e+01,8.621196539507110401e+00,7.641325342942565158e+00,5.689374184369370369e+00,5.467963751305035203e+00,1.596265860893998934e+01,5.939530897014151378e+00,1.642457417417054444e+01,1.909006650380251813e+01,1.318831944269825840e+01,1.000000000000000000e+00
1.574482920616455317e+01,1.511960607999355943e+01,1.200074406178416098e+01,2.031934703925543317e+01,1.007363290886237905e+01,1.635559768707156536e+01,1.945986991059407956e+01,1.311542594376604143e+01,1.710810857979021193e+01,1.595609729000395305e+01,1.026638209137647095e+01,1.595311990940615487e+00,1.510977186714919185e+01,2.114052372152107750e+01,2.152249701460169717e+01,1.859803982962475288e+01,2.343483342846582218e+01,1.363660686028759983e+01,1.415169673906737557e+01,9.361474232109941340e+00,2.711490145786569883e+00,1.169861432793828726e+01,1.960415701647457354e+01,1.308403368576136927e+01,1.272344216043586584e+01,2.078645263959646172e+01,1.968672122282109171e+01,1.542265410348497312e+01,2.239060087349744776e+01,1.627820505258645767e+01,1.000000000000000000e+00
5.919425825161937382e+00,1.117163553025815759e+01,1.203173393548678405e+01,2.667384797649367556e+01,2.076414351540833536e+01,2.035901943227909783e+01,2.305512365668801067e+01,2.247845734826270814e+01,2.298188047046335214e+01,1.916712642735788563e+01,2.311415728101991363e+01,3.208487756895493703e+01,1.946259421055455618e+01,1.262715799424651664e+01,1.212945568796126850e+01,1.104931043078090624e+01,1.260621448638576680e+01,2.081918433348619146e+01,2.215251932973737325e+01,1.040464154209860226e+01,1.223289161371866385e+01,1.443722564544748366e+01,1.680734026486712196e+01,1.774497822225723098e+01,2.416540033953984334e+01,1.543669866548603409e+01,1.532176190865845911e+01,1.043279370768678405e+01,1.001707550975490335e+01,9.620058871286687463e+00,1.000000000000000000e+00
1.226671340302962676e+01,1.098061190195682002e+01,1.311860929104372531e+01,2.007912780486626048e+01,1.173724511547098359e+01,1.759477991286604492e+01,1.311977189495604534e+01,1.463286944363454722e+01,2.378029006100413767e+01,1.889279876236668088e+01,2.163488149848302555e+01,2.086799860474403090e+01,2.586396132310605367e+01,1.980559222228811223e+01,1.364213389485874472e+01,2.207400765814094257e+01,1.942111638319704525e+01,1.822402475511151465e+01,1.957994062561118653e+01,2.131292941767964066e+01,2.011471105990341357e+01,2.627805624214829550e+01,2.149496319402675226e+01,1.189347949069622246e+01,8.838273941631285879e+00,1.380919527401269420e+01,5.332284716711455985e+00,9.931203445511442851e+00,1.787452203992120303e+01,8.486584298764910272e+00,1.000000000000000000e+00
1.684920805411178435e+01,1.546553318245628361e+01,1.483828057243351850e+01,1.579859182476593560e+01,2.086204819273609701e+01,2.056653085381316259e+01,8.439021911536997322e+00,9.643092044868723178e+00,1.187609322713848314e+01,2.133985652228759022e+01,1.402871752950119344e+01,1.515534890311437266e+01,2.176247977142196532e+01,1.414371335714710654e+01,1.438132292647082977e+01,9.480793987612486262e+00,1.219240666685021779e+01,1.359684375177710081e+01,1.940211388074112620e+01,1.591976553809894313e+01,8.455188985139614033e+00,4.927313046477621583e+00,7.196191479671654179e+00,8.870785924341788586e+00,1.598875833825781001e+01,1.438118704379218116e+01,2.320578923269238203e+01,1.857974459168215731e+01,2.147975471726223873e+01,1.754985421033492798e+01,1.000000000000000000e+00
2.330486886512406386e+01,1.490715324136343156e+01,1.914674620702379571e+01,1.974263287498061459e+01,1.949008565450247943e+01,1.741982572442370270e+01,2.021298654648279580e+01,1.769792063422315209e+01,8.213233126269727791e+00,1.213708406628254011e+01,8.144629028084722222e+00,1.477118433365956207e+01,2.314090297784494510e+01,2.777149303964523597e+01,2.431402904554104794e+01,2.161336262299514033e+01,1.628900386390230892e+01,1.193024743892735273e+01,9.348556939603213323e+00,6.286873681971769656e+00,6.829075860497965778e+00,7.952137485652457372e+00,3.794607388245992752e+00,1.192646238530127789e+01,6.243503458790570448e+00,1.865827083845712764e+01,1.759482818851796537e+01,1.554518593133363424e+01,1.938376027966896231e+01,7.333702322662134065e+00,1.000000000000000000e+00
1.595082620849851196e+01,2.586258490545688460e+01,1.846352761452465074e+01,2.433298275356230533e+01,2.096421015271735655e+01,2.711272615966635158e+01,1.941145708453052521e+01,2.306778701894441497e+01,2.225099862810765217e+01,1.403260773662273664e+01,1.537329712278767602e+01,2.351536859496491161e+01,2.490832923637577778e+01,2.424125279589716797e+01,3.012034886393900024e+01,2.276108305821489353e+01,2.056124824644524551e+01,1.307737622185530313e+01,1.371917024634362292e+01,1.147151582748580267e+01,1.347086991213294027e+01,1.176748870750748210e+01,8.747465620004476250e+00,8.302444747814661241e+00,1.988522747844854166e+00,1.570997022844369440e+01,1.611695846253502395e+01,9.817643207124461924e+00,2.138194465678714096e+01,8.847883917853977209e+00,1.000000000000000000e+00
1.680243188771453333e+01,1.445955698582235982e+01,1.152804393315548737e+01,2.049533230560632546e+01,1.961512495841893156e+01,1.895115286408298516e+01,2.214928376519921471e+01,2.747808986240650597e+01,2.351658353856029748e+01,1.952249731629024154e+01,2.430351555839715161e+01,2.891399410860793751e+01,9.261837899161264431e+00,2.431054646022775501e+01,2.704223682999099765e+01,2.209707587194247935e+01,1.896101860398033523e+01,1.203340026060331525e+01,1.208279818972934549e+01,1.233503321350971760e+01,9.614228717790268774e+00,8.223046164244209422e+00,6.710539504026485247e+00,7.090061164121095771e+00,7.773001326403516487e+00,1.591043351614658263e+01,9.909571844087679438e+00,1.025770719028295730e+01,1.129350586975385795e+01,1.275247471505480235e+01,1.000000000000000000e+00
2.088526835184606512e+01,1.810622785127077350e+01,1.025062688406450206e+01,1.786643686451660074e+01,1.005393636919845335e+01,1.667752963677233424e+01,1.047107043916315661e+01,2.316901531019593108e+01,2.139240896636528078e+01,1.770031634689328826e+01,1.532724082967499157e+01,1.131819310707396653e+01,1.672154023239758658e+01,1.632317065194669681e+01,1.689003654066175386e+01,1.994385458389373866e+01,1.859079246830671650e+01,2.179595174396209245e+01,1.781402321911744480e+01,1.153867879008842579e+01,7.786857497001136608e+00,1.010671533642928921e+01,1.126709259652884043e+01,6.270496590106120038e+00,1.093859152102598387e+01,2.081348301474471896e+01,1.395400063979221272e+01,1.665988854580569978e+01,1.902275986232936589e+01,2.171680009917920984e+01,1.000000000000000000e+00
1.958298130189851349e+01,1.160074946816837382e+01,6.257363305402265041e+00,1.468434484065832635e+01,9.892325795542433298e+00,1.365172806009431383e+01,2.005713656975129311e+01,1.227271529894372293e+01,1.200477840518141193e+01,1.357332921716954388e+01,2.342918417608581194e+01,1.345208987851023608e+01,1.958785037574054400e+01,2.470558530576855105e+01,1.274145514217045161e+01,1.801428374306783553e+01,1.541083047429273734e+01,1.586653459665902233e+01,1.356678014508850083e+01,9.052858824492147960e+00,7.998681867101510079e+00,1.320095611298495442e+01,1.777831547944833801e+01,2.143186762268047119e+01,9.516607911924864993e+00,1.314853166856394751e+01,6.418110623463633146e+00,1.491800309753659803e+01,2.009607540212209642e+01,1.226392872579270943e+01,1.000000000000000000e+00
1.706025707079410836e+01,5.404665338322331536e+00,1.102467003756913755e+00,0.000000000000000000e+00,0.000000000000000000e+00,0.000000000000000000e+00,0.000000000000000000e+00,0.000000000000000000e+00,0.000000000000000000e+00,8.390890967834764069e+00,0.000000000000000000e+00,2.917888481514808063e+01,9.306421054306809992e+00,7.581744719588300541e+00,1.967956392253427111e+01,1.792837945034671066e+01,2.857956448029182184e+01,3.373456183450727508e+01,3.428886441279510677e+01,2.423913641637511773e+01,1.950549206821696657e+01,2.177384466113909411e+01,3.312721608462655354e+01,1.683858304439056042e+01,2.411400883222367497e+01,3.207063163571015707e+01,1.598522176557634111e+01,2.268924987332798082e+01,2.057650640941233178e+01,2.874158231683529152e+01,1.000000000000000000e+00
5.924171431160374368e+00,1.762392932110057586e+01,1.250435042582557799e+01,1.413682747328454070e+01,1.570605932422506612e+01,2.018588056830336086e+01,2.721422705095227457e+01,2.388471342040233480e+01,2.150008590736325687e+01,2.240946183398244784e+01,3.346190845397268276e+01,2.726877621452396738e+01,1.851928251382724966e+01,3.069880280050222154e+01,2.444987731086607141e+01,1.160492467872890643e+01,2.476296986653284193e+01,2.345979122733831446e+01,1.606556333020247962e+01,1.394343119648505080e+01,1.238611778442188438e+01,7.726838740015637086e+00,1.048091761203488659e+01,1.104003263998083639e+01,1.165925283088154174e+01,8.238116865201874361e+00,1.123283704673056604e+01,1.308799213459516864e+01,1.920934524109904373e+01,1.410008215669168408e+01,1.000000000000000000e+00
5.193337677438250921e+00,2.074709122534932249e+01,2.173370429709137852e+00,1.432822627490327250e+01,1.746048755109228523e+01,1.442938935614031948e+01,8.488370481402370160e+00,1.367720862223106337e+01,1.498152555565832245e+01,2.473650993690893074e+01,2.046818298077715781e+01,2.938936247921998302e+01,2.824962944447858604e+01,2.102152121238088966e+01,1.965036750134902377e+01,1.808954251342737507e+01,1.938419236462871709e+01,1.345235889508398941e+01,1.685228565842402304e+01,1.838140798543091137e+01,1.118130415312688797e+01,2.964953582995406123e+00,8.225478948528063938e+00,1.122589021918227559e+01,1.140419623543078842e+01,2.548897145810116172e+00,1.767846262021043913e+01,1.225308590433093059e+01,1.372215384837588203e+01,1.194029918933600243e+01,1.000000000000000000e+00
1.464584472933501047e+01,1.565618609841328635e+01,1.100325967488183210e+01,1.557924747545050081e+01,1.334589780974650353e+01,2.263377569031527514e+01,1.341417871535591644e+01,1.539683644556822628e+01,2.271158795498752170e+01,1.582493253332779659e+01,1.655967270329682606e+01,1.929093825552854469e+01,2.079526181392776607e+01,2.006912327808461782e+01,1.374357469962762934e+01,1.871731194738475779e+01,2.002837660274025211e+01,1.901962772316173300e+01,1.323551141589865665e+01,1.404067556599625277e+01,1.768245772531858506e+01,1.802802967429542491e+01,1.393376848721837291e+01,1.153893179105088507e+01,1.492713995773425495e+01,1.794111797901365435e+01,8.565528470342457013e+00,1.299698065925460355e+01,1.065154611713279564e+01,1.371750170538638258e+01,1.000000000000000000e+00
1.784071600749922482e+01,1.748532330944547653e+01,1.642367185271154995e+01,1.858715308110316755e+01,1.217123947016736452e+01,2.240449747591515006e+01,1.195770733786136475e+01,1.575564041202943599e+01,2.261140150164294482e+01,5.189459570668560673e+00,1.371310609334847186e+01,2.554067622127899995e+01,1.476879946449187742e+01,2.110609080109028923e+01,8.508750151506518478e+00,3.019153133441417936e+01,2.292737729347896902e+01,1.981179121557613598e+01,1.717952469515037706e+01,2.163680760921451451e+01,1.762292526289590455e+01,1.221720904624172022e+01,1.606748067576884864e+01,1.579541041145003533e+01,2.861039275631858914e+01,2.672796411678828576e+01,1.905755858342504894e+01,1.964353235343457982e+01,1.660726768799909792e+01,1.399017867919351943e+01,1.000000000000000000e+00
1.687944628241288569e+01,2.114778570896473298e+01,1.473503991587926976e+01,1.423483814637268097e+01,2.415344644861767165e+01,1.515679982156910910e+01,2.009739846646343153e+01,2.296884477890762355e+01,1.424911244823385914e+01,2.856945781626413350e+01,1.627252557365821417e+01,2.201928430203705034e+01,1.225120181981054657e+01,2.728909355323847308e+01,2.322451666456876751e+01,2.166817602101869511e+01,1.665081897759395702e+01,1.355164880521900272e+01,1.357424671007768779e+01,1.297718523504445898e+01,1.202133632923019491e+01,4.451214509756596271e+00,3.637879539386887018e+00,6.182638421084050151e+00,1.430890666203748651e+01,1.429836251147378334e+01,1.334213755503461130e+01,1.072389081383741427e+01,1.778896541668856912e+01,1.359544342066840272e+01,1.000000000000000000e+00
1.349641115209831810e+01,1.643024358964274256e+01,1.027572520779432352e+01,6.272337496745706176e+00,8.582912235402687884e+00,9.834415890452277154e+00,6.965559480357626398e+00,1.347321849820482953e+01,2.588921330499675832e+01,1.694091713773698871e+01,1.323011023361954130e+01,2.793469126103147460e+01,9.292564993023489706e+00,1.506819760398028052e+01,1.768323454179082432e+01,1.645495555898870066e+01,1.725990206217338141e+01,1.856590407203077575e+01,1.302700552857143634e+01,1.250131879621741859e+01,1.527355551148289692e+01,1.446317610611544069e+01,9.831909437482920566e+00,1.348678361897435707e+01,2.085945692526985340e+01,1.904322140486607395e+01,2.327908019135719542e+01,1.549502560668514661e+01,2.060999277276408748e+01,1.550105174387107354e+01,1.000000000000000000e+00
5.816659389790004298e+00,3.227241272979000541e+00,9.042313732230610412e+00,1.493085131480393102e+01,1.352026843742888218e+01,2.492610403010618825e+01,1.215128662297675532e+01,1.643149043322443958e+01,1.183087007065293506e+01,1.803480486479512024e+01,1.544146655632422949e+01,2.625961415825534573e+01,1.845320198087324570e+01,2.189434321490151092e+01,8.277615307129281064e+00,2.729820090581023351e+01,2.409870424595888494e+01,2.342320189011343246e+01,2.379489874669701521e+01,1.471340088906993060e+01,1.137633587652211986e+01,1.302252249203755241e+01,1.144212666155124225e+01,7.022354091778680640e+00,9.856592438759832930e+00,2.277656472245277541e+01,2.324018298860553955e+01,1.911751309053903469e+01,2.563157840442067936e+01,1.611686141089265334e+01,1.000000000000000000e+00
1.194121890496927563e+01,2.288119420541497107e+01,1.490754515213592413e+01,2.038820405760412768e+01,2.085179992102817437e+01,1.853298216470989246e+01,1.780935411819919523e+01,2.253288810280835719e+01,8.170715160717207937e+00,3.229449069963885677e+01,1.482603861144323787e+01,3.430427718713971785e+01,3.649135736484265635e+01,2.346403395954180837e+01,3.727485217055649969e+01,2.379773614156465555e+01,1.885541714007922565e+01,1.099106745990789591e+01,2.017812108085240652e+01,2.312715881155332909e+01,1.840007908414116855e+01,1.347919424694725876e+01,2.734416516149167364e+00,3.998397990562295945e+00,1.575919360975095174e+01,2.402854469905355472e+01,1.692129331829517014e+01,1.617615427944420503e+01,1.820923759343628490e+01,1.202882168166286192e+01,1.000000000000000000e+00
1.982584061990823443e+01,1.942152709862264715e+01,1.285861319463560903e+01,1.356814517763700678e+01,9.762257750108773280e+00,2.409232485545200575e+01,2.009093658059057930e+01,1.848427580479960852e+01,2.316439355878125639e+01,2.486508268595775917e+01,1.428438468110809367e+01,3.204275726017786496e+01,2.628212944937467910e+01,2.503145191340180986e+01,2.401276441360650438e+01,2.392999673990345855e+01,1.765651958381974396e+01,1.711478523333536828e+01,1.638658587274053957e+01,1.087369186226530360e+01,9.064669604995430063e+00,7.433804141909547525e+00,9.361668050233902250e+00,1.086094279652343175e+01,4.431875589766718804e+00,1.652917503843661962e+01,9.547909005161386631e+00,1.232213413174522998e+01,1.582242706764776585e+01,1.036991160786556065e+01,1.000000000000000000e+00
1.417946304853626316e+01,5.965300058606402445e+00,1.581973646087485008e+01,8.635661480992069983e+00,8.083270659633569721e+00,1.014773572562532422e+01,1.664644001819240771e+01,1.295589408228860862e+01,1.411854821024800799e+01,2.538754795406026687e+01,1.006553545225438029e+01,3.364648017677612302e+01,2.741017038533880168e+01,2.491235109759469424e+01,1.969345055046355242e+01,1.204628780784403830e+01,8.506967971560868591e+00,9.106213538879586622e+00,8.070901501103207920e+00,0.000000000000000000e+00,0.000000000000000000e+00,0.000000000000000000e+00,0.000000000000000000e+00,1.470792126045157033e+01,6.771670079752567517e+00,8.089200077364466779e+00,1.966691638060922287e+01,1.786378655573528818e+01,2.158910972367138470e+01,1.939883786287822431e+01,1.000000000000000000e+00
2.124825265912599548e+01,1.260906564797056717e+01,1.779608944915992197e+01,2.220643213785533021e+01,1.236798794552817071e+01,1.269073425674730515e+01,2.435896306308958970e+01,9.173612810329785816e+00,2.362689550933697546e+01,1.938516792574117176e+01,1.650735492289970807e+01,1.704326240678474846e+01,1.943516968343141116e+01,1.872128657832058707e+01,1.219874297261074503e+01,2.622387651699918365e+01,2.046736134335452562e+01,2.113598830122089112e+01,1.767125184585341913e+01,1.622043386447228386e+01,1.544470781946228044e+01,1.151677773725947418e+01,9.340463779599588179e+00,1.496236169181537434e+01,1.231615100581709044e+01,1.130277508286735610e+01,1.899301592884305023e+01,1.600668956763087181e+01,1.589311122895117023e+01,1.259687816956952133e+01,1.000000000000000000e+00
1.055706114807091467e+01,7.936826434147633336e+00,7.929565065372884192e+00,9.958194495427022730e+00,9.223254512245091519e+00,1.229606411855007764e+01,1.222884735262161371e+01,6.370772887750263180e+00,1.727214517093494806e+01,2.915273038347123702e+01,2.146948407850570106e+01,1.774937861976511044e+01,2.640084617272736978e+01,2.057375978214577117e+01,2.027936869280048882e+01,2.252346773033241334e+01,2.055258376773980444e+01,1.544177166829908288e+01,1.560928167127366351e+01,1.860731707471882146e+01,1.696179464558252903e+01,9.341585361533248033e+00,6.816263659268429365e+00,8.971122912800211679e+00,3.144304401041480901e+01,2.694409341684263381e+01,2.370337466787239578e+01,1.883842946635957105e+01,1.107798540876726179e+01,1.846740991415578037e+01,1.000000000000000000e+00
2.055039197487013780e+01,2.269972723926318281e+01,1.845028932019712897e+01,1.458079526284492999e+01,1.524842511999815997e+01,1.736042552587542787e+01,1.806236487648661182e+01,1.499264037514237202e+01,1.443400745331319968e+01,1.415622576709657210e+01,8.801191524031082736e+00,1.803933281115391196e+01,2.464161164947944371e+01,2.593789775801883479e+01,2.205463653897425047e+01,3.096001956652040121e+01,1.814308646560337479e+01,8.787847857108346261e+00,9.978044042986624618e+00,8.857548625691862298e+00,1.105150406549623199e+01,1.066053519550754913e+01,1.063448190606024468e+01,9.682869177247482639e+00,8.128067731978603661e+00,1.257875961279256671e+01,1.445661636200429712e+01,1.089981592054175508e+01,1.005090329805395299e+01,1.640263217579808952e+01,1.000000000000000000e+00
1.455943592464996073e+01,1.652099205796378101e+01,1.544581386231462261e+01,1.422923658985959605e+01,1.627435832445652863e+01,2.229628930651469432e+01,1.981665705266007649e+01,1.966765309197231204e+01,2.481908709615834141e+01,1.575411224841371904e+01,1.121676510488381950e+01,2.836430369845842847e+01,1.820012906727242807e+01,1.546104990895642572e+01,2.365206824802481833e+01,2.969511247448497215e+01,1.907655569230314541e+01,1.571588720903841363e+01,1.590335524500619613e+01,1.533904197525524182e+01,1.231553887630104782e+01,1.660487115056832863e+01,1.490992845386870158e+01,4.824960710499851757e+00,8.113993975398017255e+00,1.433705970609398150e+01,1.846238142954393879e+01,1.183429179824440780e+01,1.472129844725773751e+01,1.186239913369396959e+01,1.000000000000000000e+00
1.804397520160935642e+01,1.991345519619977722e+01,1.786108208198510283e+01,1.384290319468925645e+01,8.035426849347174993e+00,9.559962543381516298e+00,2.107939510085671486e+01,2.030548865930524016e+01,1.496349018345975423e+01,1.523962298999200016e+01,1.491253239280993625e+01,1.885692711631219254e+01,2.716623420046477122e+01,2.486671941638468297e+01,1.287830244167398064e+01,2.379543128892876780e+01,2.049409399198023607e+01,1.392270551749510332e+01,1.215492063354687957e+01,9.674135561200870370e+00,6.751991216567915899e+00,6.332237353252111234e+00,1.139246845879961256e+01,9.802104419069962660e+00,1.700451566706220774e+00,1.855243384678001917e+01,1.447267967125455357e+01,9.560588969352465938e+00,1.676020373820657028e+01,1.079585882615438663e+01,1.000000000000000000e+00
