3.690799999999999859e+00,7.114099999999999868e-01,-2.114100000000000090e+00,-4.141000000000000014e+00,-4.574499999999999567e+00,-3.431900000000000173e+00,-1.950800000000000090e+00,-1.107099999999999973e+00,-6.323199999999999932e-01,3.345799999999999885e-01,8.788399999999999546e-01,8.310699999999999754e-01,8.324700000000000433e-01,7.909899999999999709e-01,7.331800000000000539e-01,6.753099999999999659e-01,7.607500000000000373e-01,6.454499999999999682e-01,6.447199999999999598e-01,5.931400000000000006e-01,6.007000000000000117e-01,4.967900000000000094e-01,4.095500000000000251e-01,3.308200000000000029e-01,1.595799999999999996e-01,2.009100000000000052e-01,1.077499999999999986e-01,-3.916499999999999843e-02,-9.683300000000000241e-02,-1.706300000000000039e-01,-2.969499999999999917e-01,-3.812699999999999978e-01,-3.630999999999999783e-01,-5.013600000000000279e-01,-6.730800000000000116e-01,-5.518800000000000372e-01,-6.509399999999999631e-01,-5.426100000000000367e-01,-6.611000000000000210e-01,-5.811800000000000299e-01,-4.542900000000000271e-01,-4.510700000000000265e-01,-2.990700000000000025e-01,-2.144899999999999862e-01,-7.692100000000000326e-02,1.023400000000000004e-01,2.084000000000000019e-01,1.505400000000000071e-01,2.136699999999999988e-01,2.449399999999999911e-01,3.069899999999999851e-01,3.383499999999999841e-01,3.461000000000000187e-01,4.136900000000000022e-01,4.410100000000000131e-01,3.915899999999999936e-01,4.175099999999999922e-01,3.027699999999999836e-01,3.803599999999999759e-01,2.897299999999999875e-01,3.741300000000000181e-01,3.987700000000000133e-01,3.649999999999999911e-01,6.312299999999999578e-01,5.091900000000000315e-01,4.691199999999999815e-01,6.101299999999999502e-01,5.937999999999999945e-01,5.685099999999999598e-01,6.185500000000000442e-01,7.510400000000000409e-01,4.934600000000000097e-01,5.395199999999999996e-01,6.412600000000000522e-01,6.093499999999999472e-01,5.940600000000000325e-01,4.078999999999999848e-01,4.276099999999999901e-01,4.308600000000000207e-01,4.152899999999999925e-01,3.135100000000000109e-01,3.537199999999999789e-01,2.693099999999999938e-01,1.695899999999999908e-01,2.408899999999999930e-01,1.303499999999999936e-01,1.862099999999999866e-01,2.430399999999999922e-02,-6.815300000000000524e-02,9.544000000000000400e-03,-1.601200000000000123e-01,-1.355999999999999983e-01,-1.555300000000000016e-01,-1.447599999999999998e-01,-3.980000000000000031e-03,-4.022799999999999987e-02,-5.134099999999999775e-02,3.833600000000000202e-02,3.410199999999999898e-01,6.159599999999999520e-01,8.155000000000000027e-01,9.121500000000000163e-01,1.197000000000000064e+00,1.525900000000000034e+00,1.677400000000000002e+00,1.493800000000000017e+00,1.332899999999999974e+00,1.033400000000000096e+00,7.093800000000000106e-01,5.041799999999999615e-01,1.219800000000000051e-01,-1.446900000000000130e-01,-7.062199999999999589e-01,-9.719600000000000461e-01,-1.092799999999999994e+00,-1.204800000000000093e+00,-1.114200000000000079e+00,-1.087299999999999933e+00,-1.285400000000000098e+00,-1.248199999999999976e+00,-1.210099999999999953e+00,-1.278499999999999970e+00,-1.278899999999999926e+00,-1.377000000000000002e+00,-1.232799999999999896e+00,-1.189899999999999958e+00,-1.344400000000000039e+00,-1.239000000000000101e+00,-1.174299999999999899e+00,-6.996700000000000141e-01,-3.247699999999999892e-02,2.284699999999999925e-02,1.889399999999999968e-01,4.809300000000000241e-01,6.292499999999999760e-01,5.772899999999999698e-01,6.655299999999999550e-01,1.036000000000000032e+00,1.492299999999999960e+00,-1.905100000000000016e+00,1.000000000000000000e+00
-5.430300000000000127e-01,-1.072200000000000042e+00,-1.196600000000000108e+00,-1.856000000000000094e+00,-1.970199999999999951e+00,-1.954399999999999915e+00,-2.092900000000000205e+00,-2.038400000000000212e+00,-1.894400000000000084e+00,-1.639999999999999902e+00,-1.304699999999999971e+00,-9.345499999999999918e-01,-6.041900000000000048e-01,-4.338199999999999834e-01,-2.755600000000000271e-01,-7.705499999999999849e-02,7.250700000000000200e-02,1.956199999999999883e-01,2.913999999999999924e-01,3.589700000000000113e-01,3.753900000000000015e-01,3.127199999999999980e-01,3.197200000000000042e-01,3.888800000000000034e-01,3.883099999999999885e-01,3.827400000000000246e-01,3.798500000000000210e-01,3.664499999999999980e-01,3.948300000000000143e-01,3.975500000000000145e-01,3.842599999999999905e-01,4.186500000000000221e-01,4.282900000000000040e-01,3.925100000000000255e-01,3.864000000000000212e-01,3.826399999999999801e-01,3.534399999999999764e-01,3.625399999999999734e-01,3.878400000000000181e-01,3.669899999999999829e-01,3.385199999999999876e-01,3.330000000000000182e-01,3.579499999999999904e-01,3.672599999999999754e-01,3.459400000000000253e-01,3.744899999999999896e-01,3.985600000000000254e-01,3.393800000000000150e-01,3.072599999999999776e-01,3.255600000000000160e-01,3.099199999999999733e-01,3.093400000000000039e-01,3.485800000000000010e-01,3.343800000000000106e-01,3.175999999999999934e-01,3.737099999999999866e-01,3.828199999999999936e-01,3.235299999999999843e-01,3.393399999999999750e-01,4.222400000000000042e-01,4.358500000000000152e-01,3.723400000000000043e-01,3.502399999999999958e-01,3.926200000000000245e-01,3.962700000000000111e-01,3.472399999999999931e-01,3.321999999999999953e-01,3.821100000000000052e-01,4.308299999999999907e-01,4.321800000000000086e-01,4.340600000000000014e-01,4.729700000000000015e-01,5.058500000000000218e-01,5.291200000000000347e-01,5.537999999999999590e-01,5.379399999999999737e-01,5.034100000000000241e-01,5.377300000000000413e-01,6.025599999999999845e-01,6.213899999999999979e-01,6.357599999999999918e-01,6.622799999999999798e-01,6.589000000000000412e-01,6.539800000000000058e-01,6.628300000000000303e-01,6.554299999999999571e-01,6.551900000000000501e-01,6.678800000000000292e-01,6.339500000000000135e-01,5.851499999999999480e-01,6.112300000000000511e-01,6.689899999999999736e-01,6.615400000000000169e-01,5.990100000000000424e-01,5.807900000000000285e-01,6.343100000000000405e-01,6.611599999999999699e-01,6.380000000000000115e-01,6.135199999999999543e-01,5.945899999999999519e-01,6.254399999999999959e-01,6.567899999999999849e-01,6.096500000000000252e-01,5.559300000000000352e-01,5.331900000000000528e-01,5.540599999999999969e-01,6.158700000000000285e-01,6.096700000000000452e-01,5.939799999999999525e-01,6.549700000000000522e-01,6.466899999999999871e-01,5.346300000000000496e-01,4.842299999999999938e-01,5.021999999999999797e-01,5.020999999999999908e-01,5.256800000000000361e-01,5.855900000000000549e-01,6.079200000000000159e-01,5.744700000000000362e-01,4.868899999999999895e-01,3.570499999999999785e-01,2.038399999999999934e-01,5.659600000000000047e-02,-1.702299999999999994e-02,-5.351399999999999907e-02,-1.554999999999999993e-01,-2.898000000000000020e-01,-4.730800000000000005e-01,-8.766300000000000203e-01,-1.479000000000000092e+00,-2.047899999999999832e+00,-2.504700000000000149e+00,-3.154399999999999871e+00,-3.750399999999999956e+00,-3.841099999999999959e+00,-3.712600000000000122e+00,-2.878400000000000070e+00,-1.912300000000000111e+00,-1.904700000000000060e+00,-4.816400000000000126e-01,2.000000000000000000e+00
-1.170099999999999918e+00,-1.681400000000000006e+00,-1.854500000000000037e+00,-2.038899999999999935e+00,-2.271900000000000031e+00,-2.237499999999999822e+00,-2.060599999999999987e+00,-1.591699999999999893e+00,-1.032699999999999951e+00,-7.963799999999999768e-01,-7.057799999999999629e-01,-4.581700000000000217e-01,-2.379100000000000104e-01,-1.996499999999999941e-01,-2.294599999999999973e-01,-2.513099999999999778e-01,-2.841699999999999782e-01,-2.344999999999999862e-01,-1.947500000000000064e-01,-2.025299999999999878e-01,-2.100499999999999867e-01,-2.023699999999999943e-01,-1.876400000000000012e-01,-2.303499999999999992e-01,-2.645500000000000074e-01,-1.948400000000000132e-01,-2.139399999999999913e-01,-2.438899999999999957e-01,-1.645800000000000041e-01,-2.064799999999999969e-01,-1.964200000000000113e-01,-1.946400000000000075e-01,-2.320299999999999863e-01,-2.027599999999999958e-01,-1.890199999999999936e-01,-2.145100000000000062e-01,-2.042700000000000071e-01,-2.588400000000000145e-01,-2.268600000000000061e-01,-2.336900000000000088e-01,-2.245099999999999874e-01,-2.234599999999999920e-01,-2.587700000000000000e-01,-2.418200000000000072e-01,-2.194699999999999984e-01,-1.870300000000000018e-01,-2.018199999999999994e-01,-1.591899999999999982e-01,-1.766000000000000070e-01,-1.950600000000000112e-01,-1.120000000000000023e-01,-1.533799999999999886e-01,-1.571700000000000041e-01,-1.603300000000000003e-01,-1.131000000000000061e-01,-9.144399999999999751e-02,-1.567099999999999882e-01,-1.302300000000000124e-01,-1.288900000000000046e-01,-9.481199999999999350e-02,-8.899600000000000566e-02,-9.785299999999999554e-02,-1.360899999999999888e-01,-1.519899999999999862e-01,-1.476399999999999935e-01,-2.297200000000000075e-01,-1.552099999999999869e-01,-1.566299999999999915e-01,-1.223899999999999988e-01,-1.559099999999999930e-01,-2.034999999999999865e-01,-1.864800000000000069e-01,-1.451999999999999957e-01,-1.958000000000000018e-01,-2.074499999999999955e-01,-1.292300000000000115e-01,-1.650800000000000045e-01,-1.386600000000000055e-01,-1.566500000000000115e-01,-1.722799999999999887e-01,-1.771099999999999897e-01,-1.146199999999999997e-01,-9.069399999999999684e-02,-1.273400000000000087e-01,-4.404700000000000282e-02,-1.429899999999999921e-02,-2.813799999999999982e-02,6.780999999999999701e-03,8.205999999999999753e-03,6.524000000000000285e-03,1.836499999999999938e-02,1.748999999999999860e-02,6.334099999999999453e-02,1.099399999999999961e-01,1.069699999999999956e-01,7.531200000000000394e-02,9.736899999999999722e-02,1.312500000000000056e-01,1.151200000000000001e-01,7.981800000000000006e-02,7.831399999999999473e-02,5.590799999999999936e-02,8.319000000000000006e-03,4.683600000000000263e-02,7.701700000000000212e-02,-5.731300000000000283e-02,4.645699999999999830e-02,7.138999999999999513e-02,1.452400000000000080e-01,1.588100000000000067e-01,2.870300000000000074e-01,4.166000000000000258e-01,6.141100000000000447e-01,7.983400000000000496e-01,9.708900000000000308e-01,1.054599999999999982e+00,1.337499999999999911e+00,1.600600000000000023e+00,1.882100000000000106e+00,2.151299999999999990e+00,2.422400000000000109e+00,2.607699999999999907e+00,2.780899999999999928e+00,2.890099999999999891e+00,2.848899999999999988e+00,2.864399999999999835e+00,2.848300000000000054e+00,2.618300000000000072e+00,2.132600000000000051e+00,1.639799999999999924e+00,1.254699999999999926e+00,6.141699999999999937e-01,1.449899999999999974e-02,-1.491399999999999948e-01,-1.708399999999999919e-01,-1.969700000000000062e-01,-9.919900000000000384e-01,-2.056299999999999795e+00,-2.541100000000000136e+00,-2.880599999999999827e+00,3.000000000000000000e+00
-1.522899999999999920e+00,-2.329800000000000093e+00,-1.978599999999999914e+00,-1.672299999999999898e+00,-1.834699999999999998e+00,-1.920099999999999918e+00,-1.623799999999999910e+00,-1.327599999999999891e+00,-1.380500000000000060e+00,-1.612500000000000044e+00,-1.712699999999999889e+00,-1.651200000000000001e+00,-1.556699999999999973e+00,-1.501700000000000035e+00,-1.494599999999999929e+00,-1.546000000000000041e+00,-1.596500000000000030e+00,-1.556799999999999962e+00,-1.409299999999999997e+00,-1.265300000000000091e+00,-1.223500000000000032e+00,-1.298100000000000032e+00,-1.407100000000000017e+00,-1.463899999999999979e+00,-1.382700000000000040e+00,-1.187300000000000022e+00,-9.574399999999999578e-01,-8.258600000000000385e-01,-8.138300000000000534e-01,-8.637099999999999778e-01,-8.974499999999999700e-01,-9.255100000000000549e-01,-9.318100000000000271e-01,-8.415700000000000403e-01,-6.160600000000000520e-01,-3.960500000000000131e-01,-3.448800000000000199e-01,-4.254600000000000048e-01,-4.650500000000000189e-01,-4.217199999999999838e-01,-4.068700000000000094e-01,-4.291599999999999859e-01,-3.872499999999999831e-01,-2.873899999999999788e-01,-2.969499999999999917e-01,-4.045699999999999852e-01,-4.025500000000000189e-01,-2.018999999999999961e-01,-5.513200000000000045e-02,-1.208199999999999968e-01,-2.280500000000000027e-01,-1.434600000000000042e-01,-3.569999999999999823e-03,-5.336500000000000271e-02,-2.442199999999999926e-01,-2.974499999999999922e-01,-1.699100000000000055e-01,-5.884799999999999753e-02,-5.254000000000000337e-02,-3.132900000000000268e-02,4.535000000000000142e-02,5.431799999999999823e-02,-4.400799999999999851e-02,-1.262300000000000089e-01,-1.179999999999999938e-01,-1.164599999999999941e-01,-1.773200000000000054e-01,-2.323699999999999932e-01,-2.221799999999999886e-01,-2.313900000000000123e-01,-2.873600000000000043e-01,-2.918299999999999783e-01,-1.440200000000000091e-01,4.542800000000000310e-02,1.219299999999999967e-01,7.607700000000000573e-02,6.356499999999999651e-02,1.488899999999999946e-01,2.308800000000000019e-01,1.780200000000000116e-01,4.523300000000000237e-02,1.270199999999999975e-02,1.544800000000000062e-01,3.235600000000000143e-01,3.501500000000000168e-01,2.701200000000000268e-01,2.482900000000000107e-01,3.228800000000000003e-01,3.570499999999999785e-01,2.913200000000000234e-01,2.410400000000000043e-01,3.175999999999999934e-01,4.207299999999999929e-01,4.083700000000000108e-01,3.017199999999999882e-01,2.913299999999999779e-01,4.496100000000000096e-01,6.554999999999999716e-01,7.204500000000000348e-01,6.309700000000000308e-01,5.364700000000000024e-01,5.989499999999999824e-01,8.027800000000000491e-01,9.925000000000000488e-01,1.033900000000000041e+00,9.623000000000000442e-01,9.185499999999999776e-01,9.959099999999999620e-01,1.153699999999999948e+00,1.267700000000000049e+00,1.255100000000000104e+00,1.155899999999999928e+00,1.112600000000000033e+00,1.204700000000000104e+00,1.358000000000000096e+00,1.415499999999999980e+00,1.360000000000000098e+00,1.298499999999999988e+00,1.305099999999999927e+00,1.302200000000000024e+00,1.245900000000000007e+00,1.227899999999999991e+00,1.337199999999999944e+00,1.462199999999999944e+00,1.440700000000000092e+00,1.291500000000000092e+00,1.189500000000000002e+00,1.207000000000000073e+00,1.284100000000000019e+00,1.369899999999999896e+00,1.443100000000000049e+00,1.408500000000000085e+00,1.219799999999999995e+00,1.050200000000000022e+00,1.097699999999999898e+00,1.243100000000000094e+00,1.221400000000000041e+00,1.146900000000000031e+00,1.468599999999999905e+00,2.285699999999999843e+00,4.000000000000000000e+00
-7.621699999999999309e-02,-1.756799999999999917e+00,-3.129500000000000171e+00,-3.968399999999999928e+00,-4.078700000000000436e+00,-3.982400000000000162e+00,-3.413899999999999935e+00,-2.135099999999999998e+00,-1.391299999999999981e+00,-1.288699999999999957e+00,-7.882099999999999662e-01,-1.734400000000000108e-01,-2.304299999999999959e-01,-2.327500000000000124e-01,-1.118600000000000011e-01,-1.925600000000000089e-01,-1.297599999999999865e-01,-2.332100000000000006e-01,-2.866000000000000214e-01,-2.254299999999999915e-01,-1.434999999999999887e-01,-1.365800000000000070e-01,-2.198700000000000099e-01,-1.870600000000000041e-02,-1.968900000000000095e-01,-2.798800000000000177e-01,-1.915000000000000036e-01,-2.052900000000000003e-01,-2.125199999999999867e-01,-2.005099999999999938e-01,-3.409800000000000053e-01,-2.499800000000000078e-01,-2.169699999999999962e-01,-2.073399999999999965e-01,-2.523099999999999787e-01,-2.697200000000000153e-01,-2.755000000000000226e-01,-2.457900000000000085e-01,-2.377599999999999991e-01,-1.848299999999999943e-01,-1.437100000000000044e-01,-3.107400000000000162e-01,-5.356099999999999750e-02,-1.829399999999999915e-01,-1.205200000000000021e-01,9.369800000000000351e-02,-1.102400000000000047e-01,6.694999999999999563e-02,1.039700000000000069e-01,8.119899999999999340e-02,7.597399999999999987e-02,1.665499999999999967e-02,1.266400000000000026e-01,1.843299999999999939e-01,1.221200000000000063e-01,1.692500000000000115e-01,1.408300000000000107e-01,2.344100000000000003e-02,1.672099999999999975e-01,1.160100000000000020e-01,1.384299999999999940e-02,-3.204800000000000010e-02,6.880799999999999417e-02,-1.663600000000000148e-02,1.673499999999999988e-01,2.631999999999999965e-02,-7.446999999999999453e-02,2.182399999999999965e-02,5.643700000000000105e-02,1.726000000000000034e-01,7.919400000000000051e-02,1.499600000000000100e-01,3.263300000000000090e-01,2.756100000000000216e-01,1.693600000000000105e-01,3.256800000000000250e-01,2.977000000000000202e-01,3.336299999999999821e-01,4.152100000000000235e-01,3.720800000000000218e-01,4.764900000000000246e-01,5.010599999999999499e-01,4.923199999999999799e-01,5.013800000000000479e-01,5.305400000000000116e-01,5.974899999999999656e-01,3.565099999999999936e-01,2.857999999999999985e-01,4.733299999999999730e-01,3.696900000000000186e-01,3.091300000000000159e-01,4.980800000000000227e-01,3.780200000000000227e-01,3.123299999999999965e-01,4.032899999999999818e-01,2.877000000000000113e-01,4.139800000000000146e-01,6.226500000000000368e-01,6.614200000000000079e-01,9.607999999999999874e-01,1.080400000000000027e+00,1.221000000000000085e+00,1.592000000000000082e+00,1.809600000000000097e+00,2.156299999999999883e+00,2.371700000000000141e+00,2.401400000000000201e+00,2.421899999999999942e+00,2.123000000000000220e+00,1.723999999999999977e+00,1.701000000000000068e+00,1.380300000000000082e+00,9.344799999999999773e-01,4.804599999999999982e-01,1.277000000000000079e-01,-1.882600000000000107e-01,-3.148900000000000032e-01,-4.804399999999999782e-01,-3.800999999999999934e-01,-3.967800000000000216e-01,-4.415000000000000036e-01,-4.443300000000000027e-01,-3.690700000000000092e-01,-4.315800000000000192e-01,-3.892700000000000049e-01,-2.500299999999999745e-01,-1.626199999999999868e-01,-2.264500000000000124e-01,-4.055199999999999916e-01,-3.242800000000000127e-01,-3.073899999999999966e-01,-2.793700000000000072e-01,-2.324499999999999900e-01,1.518500000000000127e-01,8.675500000000000433e-01,1.011700000000000044e+00,7.184199999999999475e-01,3.141999999999999793e-01,-5.012699999999999934e-01,-1.098799999999999999e+00,5.000000000000000000e+00
-1.348100000000000076e+00,-3.995999999999999996e+00,-4.226700000000000124e+00,-4.251199999999999868e+00,-3.478000000000000203e+00,-2.228400000000000158e+00,-1.808499999999999996e+00,-1.534200000000000008e+00,-7.798599999999999977e-01,-3.980000000000000204e-01,-4.935899999999999732e-01,-4.245700000000000029e-01,-4.436100000000000043e-01,-3.475300000000000056e-01,-4.292099999999999804e-01,-4.194300000000000250e-01,-4.206699999999999884e-01,-4.987300000000000066e-01,-4.108899999999999775e-01,-4.438099999999999823e-01,-4.638300000000000201e-01,-4.998900000000000010e-01,-5.242099999999999538e-01,-6.166899999999999604e-01,-6.064100000000000046e-01,-5.653599999999999737e-01,-6.614200000000000079e-01,-6.031999999999999584e-01,-6.955000000000000071e-01,-7.170299999999999452e-01,-6.968499999999999694e-01,-7.340999999999999748e-01,-7.923999999999999932e-01,-8.204799999999999871e-01,-7.272199999999999775e-01,-8.283099999999999907e-01,-7.087499999999999911e-01,-6.963899999999999535e-01,-6.620599999999999818e-01,-6.318700000000000427e-01,-5.691300000000000248e-01,-3.949500000000000233e-01,-4.136500000000000177e-01,-2.843700000000000117e-01,-2.048000000000000098e-01,-1.447599999999999998e-01,-1.213599999999999957e-01,-1.984700000000000006e-02,-2.083999999999999915e-03,-3.321400000000000047e-02,2.368400000000000019e-02,-7.442699999999999316e-02,-1.562600000000000100e-02,1.411300000000000054e-01,1.865400000000000114e-01,1.101700000000000040e-01,1.973199999999999954e-01,5.593700000000000061e-02,2.033999999999999975e-01,1.808899999999999952e-01,1.890499999999999958e-01,2.264200000000000101e-01,2.912000000000000144e-01,3.240100000000000202e-01,2.958100000000000174e-01,3.647599999999999731e-01,4.005500000000000171e-01,5.653700000000000392e-01,4.495100000000000207e-01,5.284799999999999498e-01,6.024599999999999955e-01,6.032499999999999529e-01,5.815599999999999659e-01,6.211999999999999744e-01,5.456499999999999684e-01,5.031700000000000061e-01,5.842000000000000526e-01,5.195300000000000473e-01,5.326899999999999968e-01,4.813799999999999746e-01,5.441700000000000426e-01,4.513400000000000190e-01,3.569100000000000050e-01,4.153000000000000025e-01,3.087599999999999789e-01,3.937300000000000244e-01,3.401799999999999824e-01,3.261000000000000010e-01,3.194600000000000217e-01,2.894700000000000051e-01,2.935599999999999876e-01,3.847099999999999964e-01,3.014800000000000257e-01,4.061000000000000165e-01,3.131399999999999739e-01,3.598000000000000087e-01,3.881800000000000250e-01,4.269800000000000262e-01,6.125500000000000389e-01,7.813799999999999635e-01,1.066599999999999993e+00,1.167699999999999960e+00,1.305399999999999894e+00,1.500799999999999912e+00,1.739600000000000035e+00,1.977400000000000047e+00,1.916099999999999914e+00,1.899699999999999944e+00,1.702499999999999902e+00,1.579399999999999915e+00,1.268399999999999972e+00,1.021600000000000064e+00,5.683000000000000274e-01,1.500900000000000012e-01,-4.453399999999999720e-02,-9.043199999999999850e-02,-1.443699999999999983e-01,-1.313199999999999923e-01,-1.108200000000000018e-01,-8.881000000000000005e-02,-9.581699999999999939e-02,-8.204799999999999593e-02,-5.304299999999999987e-02,-1.899800000000000100e-01,-1.113800000000000068e-01,-1.285300000000000054e-01,-4.761800000000000060e-02,-1.640600000000000044e-02,1.083599999999999980e-01,2.933899999999999841e-01,9.379800000000000360e-01,1.570899999999999963e+00,1.591399999999999926e+00,1.549199999999999910e+00,1.193100000000000049e+00,5.151299999999999768e-01,1.262699999999999934e-01,2.675299999999999900e-01,1.071099999999999941e+00,-1.163999999999999924e+00,1.000000000000000000e+00
-1.082500000000000018e+00,-1.513300000000000090e+00,-1.398800000000000043e+00,-1.866100000000000092e+00,-2.066800000000000193e+00,-2.122100000000000097e+00,-2.145500000000000185e+00,-1.855900000000000105e+00,-1.554300000000000015e+00,-1.243900000000000006e+00,-7.755400000000000071e-01,-4.207500000000000129e-01,-3.554899999999999727e-01,-3.167400000000000215e-01,-8.206700000000000106e-02,1.673699999999999910e-01,2.638300000000000090e-01,2.657200000000000117e-01,2.915300000000000114e-01,3.541699999999999848e-01,3.874099999999999766e-01,3.755899999999999794e-01,3.652000000000000246e-01,3.966000000000000081e-01,4.587600000000000011e-01,5.056100000000000039e-01,4.837600000000000233e-01,4.554000000000000270e-01,4.736400000000000055e-01,3.906999999999999917e-01,3.061300000000000132e-01,4.252699999999999814e-01,4.717000000000000082e-01,3.776800000000000157e-01,3.886399999999999855e-01,3.879400000000000071e-01,3.683400000000000007e-01,4.125900000000000123e-01,4.041699999999999737e-01,4.106099999999999750e-01,4.301099999999999923e-01,4.240399999999999725e-01,4.914000000000000035e-01,5.040000000000000036e-01,4.818799999999999750e-01,5.316100000000000270e-01,4.673900000000000277e-01,3.892300000000000204e-01,4.448900000000000077e-01,4.314200000000000257e-01,3.672799999999999954e-01,3.923099999999999921e-01,4.289799999999999724e-01,4.264700000000000157e-01,4.037200000000000233e-01,3.990000000000000213e-01,4.147199999999999775e-01,4.046600000000000197e-01,3.990699999999999803e-01,3.977499999999999925e-01,4.005500000000000171e-01,4.377099999999999880e-01,3.930699999999999750e-01,3.156300000000000217e-01,3.707199999999999940e-01,3.919000000000000261e-01,3.467999999999999972e-01,3.854699999999999793e-01,4.116600000000000259e-01,4.255099999999999993e-01,4.633099999999999996e-01,4.594900000000000095e-01,4.982500000000000262e-01,5.527900000000000036e-01,5.319899999999999629e-01,5.426999999999999602e-01,5.694700000000000317e-01,5.205999999999999517e-01,4.911200000000000010e-01,5.299899999999999611e-01,5.483599999999999586e-01,5.629100000000000215e-01,6.366600000000000037e-01,6.759500000000000508e-01,6.299299999999999899e-01,6.237599999999999811e-01,6.676499999999999657e-01,6.240999999999999881e-01,5.355400000000000160e-01,5.225800000000000445e-01,5.721399999999999819e-01,6.338099999999999845e-01,6.080100000000000504e-01,5.105199999999999738e-01,5.173299999999999566e-01,5.734000000000000208e-01,5.777400000000000313e-01,6.124199999999999644e-01,6.271700000000000053e-01,5.903399999999999759e-01,6.041900000000000048e-01,6.281499999999999861e-01,5.876000000000000112e-01,5.265499999999999625e-01,5.179799999999999960e-01,5.669399999999999995e-01,6.022899999999999920e-01,6.110299999999999621e-01,6.103199999999999736e-01,5.657699999999999951e-01,5.254799999999999471e-01,5.061499999999999888e-01,4.168000000000000038e-01,3.080899999999999750e-01,3.032699999999999840e-01,4.070900000000000074e-01,5.408399999999999874e-01,5.734599999999999698e-01,4.691000000000000170e-01,3.356600000000000139e-01,2.176500000000000101e-01,8.713700000000000612e-02,-1.079600000000000004e-01,-3.032199999999999895e-01,-3.297599999999999976e-01,-2.941799999999999971e-01,-3.937999999999999834e-01,-5.849999999999999645e-01,-8.754100000000000215e-01,-1.367299999999999960e+00,-1.933100000000000041e+00,-2.449899999999999967e+00,-3.082899999999999974e+00,-3.633999999999999897e+00,-3.846900000000000208e+00,-3.811300000000000132e+00,-3.120899999999999785e+00,-2.273000000000000131e+00,-1.903000000000000025e+00,-5.074600000000000222e-01,2.000000000000000000e+00
-5.469300000000000272e-01,-1.396700000000000053e+00,-1.991400000000000059e+00,-2.426800000000000068e+00,-2.534100000000000019e+00,-2.295599999999999863e+00,-1.949999999999999956e+00,-1.282999999999999918e+00,-7.058200000000000029e-01,-6.345899999999999874e-01,-3.260199999999999765e-01,-7.067600000000000271e-02,-8.111000000000000154e-03,1.228500000000000078e-02,-1.945500000000000007e-02,-4.466300000000000131e-02,-7.179399999999999671e-02,3.802200000000000024e-02,4.340600000000000014e-02,-2.859799999999999842e-02,4.220000000000000118e-04,-1.369700000000000084e-02,1.350100000000000085e-02,5.846300000000000108e-02,3.023800000000000099e-02,9.264100000000000112e-02,6.793799999999999839e-02,5.241300000000000125e-02,5.703099999999999836e-02,3.308200000000000029e-02,5.341400000000000314e-02,1.181299999999999989e-01,1.091700000000000031e-01,4.047100000000000003e-02,8.968299999999999883e-02,2.156599999999999837e-02,8.516999999999999571e-02,8.999500000000000555e-02,-1.003899999999999931e-02,7.713799999999999824e-02,1.391999999999999904e-01,7.474100000000000188e-02,6.402800000000000158e-02,1.426999999999999935e-01,1.717100000000000015e-01,1.403099999999999903e-01,1.760599999999999943e-01,1.396000000000000019e-01,2.053300000000000125e-01,1.899000000000000132e-01,2.152399999999999869e-01,2.283799999999999997e-01,2.409699999999999898e-01,2.822500000000000009e-01,2.557400000000000229e-01,2.559400000000000008e-01,2.994299999999999740e-01,2.934499999999999886e-01,2.259099999999999997e-01,2.598500000000000254e-01,2.532699999999999951e-01,1.738800000000000068e-01,1.891500000000000126e-01,1.471399999999999930e-01,1.891400000000000026e-01,3.225299999999999834e-01,2.282800000000000107e-01,2.265000000000000069e-01,2.162199999999999955e-01,2.637900000000000245e-01,2.545499999999999985e-01,2.517300000000000093e-01,3.186999999999999833e-01,3.546500000000000208e-01,4.050300000000000011e-01,3.282100000000000017e-01,3.335799999999999876e-01,3.840199999999999725e-01,3.632799999999999918e-01,4.759099999999999997e-01,4.501800000000000246e-01,3.910399999999999987e-01,4.751400000000000068e-01,5.434999999999999831e-01,5.522899999999999476e-01,4.724499999999999811e-01,5.279099999999999904e-01,5.839100000000000401e-01,5.732899999999999663e-01,4.900999999999999801e-01,4.562899999999999734e-01,5.461500000000000243e-01,4.928400000000000003e-01,5.349699999999999456e-01,5.099399999999999489e-01,4.403299999999999992e-01,4.418400000000000105e-01,4.897199999999999886e-01,4.596299999999999830e-01,4.314500000000000002e-01,3.584700000000000109e-01,3.488100000000000089e-01,3.899400000000000088e-01,4.605799999999999894e-01,6.114100000000000090e-01,7.063899999999999624e-01,7.052399999999999780e-01,7.849800000000000111e-01,9.515200000000000324e-01,1.058400000000000007e+00,1.269600000000000062e+00,1.444900000000000073e+00,1.594400000000000039e+00,1.692399999999999904e+00,1.564999999999999947e+00,1.404099999999999904e+00,1.267700000000000049e+00,1.130700000000000038e+00,1.005500000000000060e+00,8.492600000000000149e-01,6.443100000000000493e-01,4.459099999999999731e-01,2.280099999999999905e-01,-8.448999999999999566e-02,-1.512600000000000056e-01,7.453999999999999689e-03,-4.878600000000000297e-02,-2.331600000000000061e-01,-4.644300000000000095e-01,-7.456800000000000095e-01,-7.080300000000000482e-01,-6.401400000000000423e-01,-7.501100000000000545e-01,-1.188299999999999912e+00,-1.915499999999999980e+00,-2.559200000000000141e+00,-3.548999999999999932e+00,-4.621800000000000352e+00,-4.358799999999999564e+00,-3.275799999999999823e+00,3.000000000000000000e+00
-2.762700000000000156e+00,-3.557399999999999896e+00,-3.544399999999999995e+00,-3.479800000000000004e+00,-3.316500000000000004e+00,-3.017399999999999860e+00,-2.259799999999999809e+00,-1.482900000000000107e+00,-1.156300000000000106e+00,-1.066300000000000026e+00,-6.264100000000000223e-01,-2.292700000000000016e-01,-2.331699999999999884e-01,-3.192800000000000082e-01,-3.275000000000000133e-01,-3.215399999999999925e-01,-3.710200000000000164e-01,-3.180499999999999994e-01,-3.379699999999999926e-01,-3.993599999999999928e-01,-3.711800000000000099e-01,-2.528799999999999937e-01,-3.462799999999999767e-01,-4.158100000000000129e-01,-3.173400000000000110e-01,-2.661899999999999822e-01,-3.583799999999999764e-01,-3.926799999999999735e-01,-3.402200000000000224e-01,-3.729199999999999737e-01,-4.219600000000000017e-01,-5.135499999999999510e-01,-5.766999999999999904e-01,-4.866199999999999970e-01,-5.212599999999999456e-01,-4.733299999999999730e-01,-4.966300000000000159e-01,-5.260799999999999921e-01,-5.001100000000000545e-01,-5.417300000000000448e-01,-4.276400000000000201e-01,-5.171200000000000241e-01,-6.343499999999999694e-01,-5.975500000000000256e-01,-6.453100000000000502e-01,-5.886599999999999611e-01,-5.969700000000000006e-01,-4.760199999999999987e-01,-5.082200000000000051e-01,-3.600999999999999757e-01,-3.869699999999999807e-01,-4.443500000000000227e-01,-4.611100000000000199e-01,-3.080300000000000260e-01,-2.117799999999999960e-01,-1.664799999999999891e-01,-7.997500000000000442e-02,-6.110100000000000253e-02,-3.136300000000000199e-02,-3.042600000000000166e-02,4.396400000000000308e-02,1.378300000000000011e-02,2.141699999999999854e-02,7.565800000000000303e-02,-5.600800000000000223e-02,4.516699999999999882e-02,9.090199999999999669e-02,3.515499999999999875e-02,8.177600000000000147e-02,2.046199999999999963e-01,2.151700000000000002e-01,1.806200000000000028e-01,7.717000000000000248e-02,2.111599999999999866e-01,2.187399999999999900e-01,2.402199999999999891e-01,1.552999999999999936e-01,1.711100000000000121e-01,1.695399999999999963e-01,3.877800000000000136e-01,3.479999999999999760e-01,4.366700000000000026e-01,4.384199999999999764e-01,4.444500000000000117e-01,5.845299999999999940e-01,5.926299999999999901e-01,6.985900000000000443e-01,7.981200000000000516e-01,9.614599999999999813e-01,9.682199999999999696e-01,1.064000000000000057e+00,1.114999999999999991e+00,1.033600000000000074e+00,9.906399999999999650e-01,9.019599999999999840e-01,9.713399999999999812e-01,9.941299999999999581e-01,1.042200000000000015e+00,1.050400000000000000e+00,1.043099999999999916e+00,1.246399999999999952e+00,1.350500000000000034e+00,1.266499999999999959e+00,1.017099999999999893e+00,8.253399999999999626e-01,6.532400000000000428e-01,6.292400000000000215e-01,6.939400000000000013e-01,5.491700000000000470e-01,5.686999999999999833e-01,4.966900000000000204e-01,5.094699999999999784e-01,4.883799999999999808e-01,4.977099999999999858e-01,5.068599999999999772e-01,5.040999999999999925e-01,5.747499999999999831e-01,4.779599999999999960e-01,4.963500000000000134e-01,4.313600000000000212e-01,5.075699999999999656e-01,4.844800000000000217e-01,6.178599999999999648e-01,7.997199999999999864e-01,1.130800000000000027e+00,1.545600000000000085e+00,1.612500000000000044e+00,1.514399999999999968e+00,1.533600000000000074e+00,1.504499999999999948e+00,1.312699999999999978e+00,1.188099999999999934e+00,8.750700000000000145e-01,6.099299999999999722e-01,6.898999999999999577e-01,8.403599999999999959e-01,2.081099999999999894e-01,-6.721200000000000507e-01,-1.635499999999999954e+00,-2.359700000000000131e+00,4.000000000000000000e+00
-6.885900000000000354e-01,-1.829499999999999904e+00,-2.352799999999999780e+00,-3.176299999999999901e+00,-3.644099999999999895e+00,-3.337299999999999933e+00,-2.317299999999999915e+00,-1.278699999999999948e+00,-1.111499999999999932e+00,-6.025800000000000045e-01,-5.121999999999999817e-03,-3.489400000000000140e-02,1.449699999999999947e-02,-4.665199999999999902e-02,-4.512900000000000245e-02,6.542100000000000692e-02,2.559000000000000077e-03,4.427400000000000085e-02,-2.745900000000000077e-02,1.412399999999999940e-02,-1.159899999999999994e-02,4.080899999999999805e-02,4.560499999999999970e-02,-2.703399999999999900e-02,2.209799999999999959e-02,1.008600000000000052e-01,5.154099999999999654e-02,-3.821499999999999897e-02,-1.018899999999999945e-01,-6.320499999999999730e-02,-1.461600000000000052e-02,-4.011499999999999788e-02,2.504599999999999882e-02,-9.553300000000000680e-02,-1.395699999999999996e-01,5.897999999999999597e-03,-6.839000000000000634e-02,-1.558599999999999985e-01,1.163100000000000071e-02,2.692400000000000002e-02,5.632899999999999713e-02,2.655999999999999941e-03,1.410099999999999965e-01,1.476500000000000035e-01,1.067599999999999938e-01,2.024700000000000111e-01,7.775999999999999579e-02,1.852699999999999902e-01,1.897199999999999998e-01,1.698699999999999932e-01,2.461000000000000132e-01,1.484600000000000086e-01,1.635900000000000132e-01,1.342599999999999905e-01,8.044400000000000162e-02,1.865300000000000014e-01,1.995699999999999974e-01,1.919299999999999895e-01,1.839300000000000102e-01,1.707200000000000106e-01,1.252000000000000057e-01,1.930300000000000071e-01,1.499199999999999977e-01,1.399700000000000111e-01,1.682200000000000084e-01,2.276100000000000068e-01,2.413399999999999990e-01,3.624100000000000099e-01,3.560499999999999776e-01,4.084699999999999998e-01,4.797699999999999743e-01,6.152800000000000491e-01,6.091400000000000148e-01,6.018700000000000161e-01,5.892399999999999860e-01,6.232199999999999962e-01,7.113800000000000123e-01,6.011400000000000077e-01,6.503400000000000292e-01,6.413400000000000212e-01,5.700499999999999456e-01,5.596499999999999808e-01,5.013900000000000023e-01,5.381700000000000372e-01,4.677299999999999791e-01,5.204499999999999682e-01,4.498400000000000176e-01,5.123900000000000121e-01,4.776199999999999890e-01,3.891999999999999904e-01,5.588300000000000489e-01,5.243499999999999828e-01,5.921899999999999942e-01,9.114900000000000224e-01,1.071499999999999897e+00,1.170400000000000107e+00,1.257700000000000040e+00,1.714900000000000091e+00,1.876300000000000079e+00,1.951600000000000001e+00,1.926099999999999923e+00,1.790899999999999936e+00,1.705999999999999961e+00,1.443300000000000027e+00,1.266699999999999937e+00,1.053600000000000092e+00,8.036299999999999555e-01,4.767299999999999871e-01,2.666100000000000136e-01,-1.454699999999999882e-01,-2.414900000000000102e-01,-2.513699999999999823e-01,-2.539000000000000146e-01,-2.097900000000000043e-01,-3.076400000000000245e-01,-2.467999999999999916e-01,-2.143400000000000027e-01,-2.782499999999999973e-01,-3.109999999999999987e-01,-3.294000000000000261e-01,-3.164000000000000146e-01,-2.800799999999999956e-01,-2.612200000000000077e-01,-1.890300000000000036e-01,-1.339400000000000035e-01,2.451200000000000045e-01,9.328300000000000480e-01,1.213400000000000034e+00,8.245099999999999651e-01,1.943799999999999972e-01,-6.953200000000000491e-01,-1.311299999999999910e+00,-1.528499999999999970e+00,-1.318500000000000005e+00,-7.448900000000000521e-01,-6.470200000000000395e-01,-1.388099999999999890e+00,-2.491099999999999870e+00,-3.126300000000000079e+00,-4.235899999999999999e+00,5.000000000000000000e+00
1.024299999999999988e+00,-5.903100000000000014e-01,-1.916900000000000048e+00,-2.806999999999999940e+00,-3.527899999999999814e+00,-3.638700000000000045e+00,-2.779799999999999827e+00,-2.019000000000000128e+00,-1.980799999999999894e+00,-1.440700000000000092e+00,-8.425399999999999556e-01,-8.297299999999999676e-01,-7.904799999999999605e-01,-7.854400000000000270e-01,-8.354599999999999804e-01,-7.963599999999999568e-01,-7.711500000000000021e-01,-8.153899999999999482e-01,-7.354000000000000536e-01,-7.989600000000000035e-01,-6.795099999999999474e-01,-6.832500000000000240e-01,-7.396000000000000352e-01,-8.159100000000000241e-01,-9.023799999999999599e-01,-8.130100000000000104e-01,-8.555599999999999872e-01,-7.938399999999999901e-01,-8.533300000000000329e-01,-8.430199999999999916e-01,-8.449699999999999989e-01,-9.172799999999999843e-01,-9.797000000000000153e-01,-1.031600000000000072e+00,-9.582000000000000517e-01,-1.008499999999999952e+00,-1.043400000000000105e+00,-1.009600000000000053e+00,-1.001200000000000090e+00,-9.532899999999999707e-01,-9.006499999999999506e-01,-8.373199999999999532e-01,-7.315000000000000391e-01,-6.692500000000000115e-01,-5.513299999999999867e-01,-4.797100000000000253e-01,-3.104600000000000137e-01,-3.603199999999999736e-01,-3.627400000000000069e-01,-1.650099999999999900e-01,-1.633799999999999975e-01,-1.139899999999999941e-01,-1.591200000000000114e-01,-1.832000000000000017e-01,-1.179599999999999954e-01,1.040499999999999932e-02,-6.088199999999999862e-02,-1.068999999999999950e-01,-7.543500000000000205e-02,-2.095400000000000040e-02,-1.089700000000000044e-02,-3.225999999999999701e-02,5.649300000000000155e-02,8.177800000000000347e-02,1.308400000000000118e-01,1.164899999999999963e-01,1.896599999999999953e-01,2.047899999999999998e-01,3.575400000000000245e-01,3.415099999999999802e-01,4.557300000000000240e-01,3.798400000000000110e-01,4.001700000000000257e-01,4.316400000000000237e-01,4.413500000000000201e-01,4.845300000000000162e-01,4.896900000000000142e-01,4.525799999999999823e-01,4.045000000000000262e-01,4.766299999999999981e-01,4.345600000000000018e-01,4.291300000000000114e-01,4.184399999999999786e-01,4.801799999999999957e-01,4.652100000000000124e-01,4.523800000000000043e-01,4.098300000000000276e-01,3.940000000000000169e-01,3.305899999999999950e-01,4.541100000000000136e-01,4.982599999999999807e-01,3.959900000000000087e-01,4.085500000000000242e-01,4.315700000000000092e-01,4.093300000000000272e-01,4.408000000000000251e-01,3.928599999999999870e-01,4.030000000000000249e-01,4.678399999999999781e-01,4.874899999999999789e-01,4.432300000000000129e-01,6.638300000000000312e-01,9.390600000000000058e-01,1.196399999999999908e+00,1.237999999999999989e+00,1.310000000000000053e+00,1.594200000000000061e+00,1.836200000000000054e+00,1.873199999999999976e+00,1.960099999999999953e+00,1.803800000000000070e+00,1.718399999999999928e+00,1.592999999999999972e+00,1.344899999999999984e+00,1.166500000000000092e+00,6.957499999999999796e-01,2.795900000000000052e-01,1.808099999999999985e-01,2.015099999999999947e-01,1.910300000000000054e-01,1.533700000000000063e-01,1.784600000000000075e-01,2.636600000000000055e-01,2.714300000000000046e-01,2.716000000000000081e-01,3.567500000000000115e-01,2.578599999999999781e-01,2.777700000000000169e-01,3.317399999999999793e-01,3.847300000000000164e-01,3.688199999999999812e-01,4.435000000000000053e-01,8.275799999999999823e-01,1.237000000000000099e+00,1.235100000000000087e+00,1.738099999999999978e+00,1.800799999999999956e+00,1.816300000000000026e+00,1.473999999999999977e+00,1.389799999999999924e+00,1.000000000000000000e+00
-8.939500000000000224e-01,-1.513500000000000068e+00,-1.662900000000000045e+00,-2.168499999999999872e+00,-2.385699999999999932e+00,-2.486899999999999888e+00,-2.213799999999999990e+00,-1.929699999999999971e+00,-1.494399999999999951e+00,-9.422800000000000065e-01,-5.344900000000000206e-01,-4.111400000000000055e-01,-3.022699999999999831e-01,3.609199999999999908e-02,3.113199999999999856e-01,3.863599999999999812e-01,3.678699999999999748e-01,3.190000000000000058e-01,3.315500000000000114e-01,3.842999999999999750e-01,3.844400000000000039e-01,3.489900000000000224e-01,3.137499999999999734e-01,3.330099999999999727e-01,3.803199999999999914e-01,3.796599999999999975e-01,3.355899999999999994e-01,3.349800000000000000e-01,3.489900000000000224e-01,3.581300000000000039e-01,4.345200000000000173e-01,4.173899999999999832e-01,3.756599999999999939e-01,3.579399999999999804e-01,3.312300000000000244e-01,3.489900000000000224e-01,3.006499999999999728e-01,2.987600000000000255e-01,3.292399999999999771e-01,3.294000000000000261e-01,2.970300000000000162e-01,2.759300000000000086e-01,2.924900000000000277e-01,3.023899999999999921e-01,3.681200000000000028e-01,3.231899999999999773e-01,2.982000000000000206e-01,2.990599999999999925e-01,2.321699999999999875e-01,2.924900000000000277e-01,3.037099999999999800e-01,2.522699999999999942e-01,2.883499999999999952e-01,3.259000000000000230e-01,3.301899999999999835e-01,3.062500000000000222e-01,2.924900000000000277e-01,3.134000000000000119e-01,2.815500000000000225e-01,2.964700000000000113e-01,3.582500000000000129e-01,3.670999999999999819e-01,3.430699999999999861e-01,2.924900000000000277e-01,2.869999999999999774e-01,3.352800000000000225e-01,3.655700000000000061e-01,3.757499999999999729e-01,4.325200000000000156e-01,5.080999999999999961e-01,4.808100000000000152e-01,4.537300000000000222e-01,5.176399999999999890e-01,4.892199999999999882e-01,5.079599999999999671e-01,5.279800000000000049e-01,4.553599999999999870e-01,4.808100000000000152e-01,4.845099999999999962e-01,4.904100000000000126e-01,4.958699999999999775e-01,4.292699999999999849e-01,4.401800000000000157e-01,4.581999999999999962e-01,4.054800000000000071e-01,4.183799999999999741e-01,4.439699999999999758e-01,4.311400000000000232e-01,3.776900000000000257e-01,3.817099999999999937e-01,4.012600000000000056e-01,3.301499999999999990e-01,3.106999999999999762e-01,3.290600000000000191e-01,4.126500000000000168e-01,4.391300000000000203e-01,3.999800000000000022e-01,4.319500000000000006e-01,4.619800000000000018e-01,4.810800000000000076e-01,4.866400000000000170e-01,5.372000000000000108e-01,5.060400000000000453e-01,4.621299999999999852e-01,5.063299999999999468e-01,5.184800000000000519e-01,5.537100000000000355e-01,5.343999999999999861e-01,5.114800000000000457e-01,5.203499999999999792e-01,4.889000000000000012e-01,4.849200000000000177e-01,5.373099999999999543e-01,5.762699999999999489e-01,5.780199999999999783e-01,6.354100000000000303e-01,6.011300000000000532e-01,5.800999999999999490e-01,5.094300000000000495e-01,3.113199999999999856e-01,3.211700000000000110e-01,3.541300000000000003e-01,4.475899999999999879e-01,4.977500000000000258e-01,3.580699999999999994e-01,2.596100000000000074e-01,8.533300000000000607e-02,-2.069600000000000051e-01,-3.621699999999999919e-01,-2.763800000000000145e-01,-3.041699999999999959e-01,-6.232199999999999962e-01,-9.721600000000000241e-01,-1.590700000000000003e+00,-2.294799999999999951e+00,-2.848199999999999843e+00,-4.000300000000000189e+00,-4.161699999999999733e+00,-4.895599999999999952e+00,-3.270300000000000207e+00,2.000000000000000000e+00
-5.566999999999999726e-01,-1.580000000000000016e-01,-7.408000000000000140e-01,-1.980199999999999960e+00,-3.502200000000000202e+00,-4.192700000000000315e+00,-4.512100000000000222e+00,-4.311300000000000132e+00,-3.697999999999999954e+00,-2.784800000000000164e+00,-1.584699999999999998e+00,-9.140700000000000491e-01,-7.555100000000000149e-01,-1.569200000000000039e-01,1.210200000000000026e-01,1.227000000000000035e-01,1.526899999999999924e-01,9.034300000000000663e-02,8.772000000000000283e-03,-2.860499999999999848e-02,8.913100000000000189e-02,2.017899999999999971e-01,1.161100000000000049e-01,2.481699999999999878e-02,-3.120399999999999910e-02,3.548899999999999971e-02,1.066099999999999964e-01,-3.735399999999999832e-02,-2.102000000000000049e-02,8.724600000000000410e-02,-2.770600000000000146e-02,-1.519199999999999995e-01,-1.360800000000000065e-01,-9.937600000000000600e-02,-1.263299999999999979e-01,-1.310499999999999998e-01,-2.168100000000000027e-01,-3.058600000000000207e-01,-2.472000000000000031e-01,-1.817199999999999926e-01,-2.220699999999999896e-01,-3.964099999999999846e-01,-3.375600000000000267e-01,-3.471600000000000241e-01,-3.603600000000000136e-01,-3.309099999999999819e-01,-3.840299999999999825e-01,-4.284899999999999820e-01,-3.235399999999999943e-01,-3.120899999999999785e-01,-3.317599999999999993e-01,-1.262699999999999934e-01,-1.260199999999999931e-01,-3.980999999999999817e-02,-1.252800000000000025e-01,-1.774299999999999836e-02,-2.388499999999999998e-02,-4.515799999999999675e-02,1.421900000000000108e-01,1.195100000000000051e-01,1.511000000000000121e-01,9.781600000000000017e-02,2.353800000000000059e-01,1.422400000000000053e-01,1.727499999999999869e-01,1.973300000000000054e-01,3.499700000000000033e-02,1.109799999999999953e-01,3.911599999999999799e-02,6.977500000000000369e-02,2.278499999999999970e-01,7.252000000000000113e-02,1.389100000000000057e-01,1.523100000000000009e-01,1.390099999999999947e-01,8.826900000000000024e-02,1.314700000000000035e-01,2.048599999999999866e-01,2.655699999999999728e-01,1.993600000000000094e-01,2.667399999999999771e-01,2.491500000000000103e-01,2.920599999999999863e-01,4.981700000000000017e-01,3.827599999999999891e-01,2.253000000000000003e-01,3.172699999999999965e-01,4.330100000000000060e-01,4.725599999999999801e-01,5.928099999999999481e-01,5.987000000000000099e-01,5.044800000000000395e-01,5.725700000000000234e-01,5.796400000000000441e-01,4.635799999999999921e-01,4.606100000000000194e-01,3.386399999999999966e-01,4.546000000000000041e-01,4.546600000000000086e-01,3.092799999999999994e-01,2.094799999999999995e-01,3.042599999999999749e-01,2.841000000000000192e-01,2.741299999999999848e-01,2.414999999999999925e-01,2.757600000000000051e-01,3.642799999999999927e-01,1.525499999999999912e-01,1.923499999999999932e-01,3.062900000000000067e-01,2.895699999999999941e-01,2.055700000000000027e-01,2.484099999999999919e-01,3.598000000000000087e-01,3.308800000000000074e-01,4.914799999999999724e-01,5.273900000000000254e-01,5.729199999999999848e-01,7.069499999999999673e-01,9.813300000000000356e-01,1.187799999999999967e+00,1.359299999999999953e+00,1.637599999999999945e+00,1.767600000000000060e+00,1.922199999999999909e+00,1.916299999999999892e+00,1.827700000000000102e+00,1.766899999999999915e+00,1.588100000000000067e+00,1.272199999999999998e+00,8.581400000000000139e-01,6.766900000000000137e-01,5.031700000000000061e-01,3.482000000000000095e-01,6.600399999999999323e-02,-3.817999999999999727e-01,-5.412900000000000489e-01,-6.542200000000000237e-01,-6.534100000000000463e-01,-6.740500000000000380e-01,3.000000000000000000e+00
-2.215700000000000003e+00,-3.394499999999999851e+00,-3.237099999999999866e+00,-3.604999999999999982e+00,-3.927999999999999936e+00,-3.550699999999999967e+00,-3.227500000000000036e+00,-3.196899999999999853e+00,-3.047000000000000153e+00,-2.797600000000000087e+00,-2.457899999999999974e+00,-1.871599999999999930e+00,-1.234699999999999909e+00,-7.968199999999999728e-01,-5.830400000000000027e-01,-5.614799999999999791e-01,-5.398699999999999610e-01,-2.700600000000000223e-01,1.262900000000000134e-01,3.633899999999999908e-01,4.138299999999999756e-01,4.307699999999999863e-01,4.384100000000000219e-01,4.330600000000000005e-01,4.308699999999999752e-01,3.498700000000000143e-01,2.518199999999999883e-01,2.975599999999999912e-01,4.061600000000000210e-01,4.042700000000000182e-01,3.349099999999999855e-01,3.401699999999999724e-01,3.896100000000000119e-01,4.066100000000000270e-01,3.868500000000000272e-01,3.311899999999999844e-01,3.167599999999999860e-01,3.815600000000000103e-01,4.040300000000000002e-01,3.479800000000000115e-01,3.311600000000000099e-01,3.552199999999999802e-01,3.100200000000000178e-01,2.386399999999999910e-01,2.387100000000000055e-01,2.515399999999999858e-01,2.460400000000000087e-01,2.503500000000000170e-01,2.022100000000000009e-01,1.223500000000000004e-01,1.440400000000000014e-01,2.415299999999999947e-01,2.627800000000000136e-01,2.009700000000000097e-01,1.529500000000000026e-01,1.178300000000000042e-01,8.511000000000000509e-02,7.428300000000000181e-02,4.964500000000000163e-02,3.059900000000000120e-02,5.150699999999999723e-02,5.816500000000000142e-02,5.783400000000000346e-02,1.220699999999999980e-01,1.747499999999999887e-01,8.518299999999999483e-02,-2.751999999999999932e-02,1.196499999999999994e-02,8.615599999999999647e-02,4.746299999999999825e-02,-2.306700000000000070e-02,-1.113199999999999953e-02,7.643199999999999994e-02,1.339200000000000113e-01,7.307800000000000407e-02,-4.634499999999999731e-02,-6.182599999999999901e-02,6.162399999999999822e-02,1.573299999999999976e-01,1.413200000000000012e-01,1.214599999999999985e-01,1.517000000000000015e-01,1.577500000000000013e-01,9.223299999999999554e-02,3.160199999999999815e-02,3.318700000000000122e-02,2.758499999999999841e-02,5.611999999999999801e-03,3.132200000000000262e-02,8.881899999999999518e-02,1.397299999999999931e-01,1.875300000000000022e-01,2.182600000000000096e-01,2.265099999999999891e-01,2.841099999999999737e-01,3.755100000000000104e-01,3.538000000000000034e-01,2.760699999999999821e-01,3.292100000000000026e-01,4.523699999999999943e-01,4.940599999999999992e-01,4.834499999999999909e-01,4.870700000000000029e-01,4.676299999999999901e-01,4.287199999999999900e-01,4.568099999999999938e-01,5.357100000000000195e-01,5.676900000000000279e-01,5.208700000000000552e-01,4.389299999999999868e-01,4.029300000000000104e-01,4.353799999999999892e-01,4.864200000000000190e-01,5.160200000000000342e-01,5.098799999999999999e-01,4.900200000000000111e-01,5.055399999999999894e-01,6.016000000000000236e-01,7.382600000000000273e-01,7.858500000000000485e-01,7.207200000000000273e-01,6.678300000000000347e-01,7.101499999999999480e-01,7.805299999999999461e-01,7.529700000000000282e-01,6.394499999999999629e-01,5.647199999999999998e-01,5.745700000000000252e-01,6.422099999999999476e-01,6.868800000000000461e-01,5.863800000000000123e-01,4.582700000000000107e-01,5.574900000000000411e-01,7.073099999999999943e-01,6.464699999999999891e-01,6.650599999999999845e-01,7.770599999999999730e-01,5.050599999999999534e-01,4.101199999999999846e-01,1.464099999999999957e+00,4.000000000000000000e+00
-8.494200000000000361e-02,-9.607900000000000329e-01,-1.300999999999999934e+00,-1.712699999999999889e+00,-2.284100000000000019e+00,-2.714199999999999946e+00,-3.004000000000000004e+00,-3.300100000000000033e+00,-3.513999999999999790e+00,-3.504500000000000171e+00,-3.361600000000000144e+00,-3.210799999999999876e+00,-3.029100000000000126e+00,-2.753699999999999815e+00,-2.378800000000000026e+00,-1.916800000000000059e+00,-1.422600000000000087e+00,-1.035600000000000076e+00,-8.490400000000000169e-01,-8.084299999999999820e-01,-7.662900000000000267e-01,-6.280799999999999716e-01,-3.713299999999999934e-01,-6.594600000000000461e-02,1.674499999999999877e-01,2.462399999999999867e-01,2.315899999999999903e-01,2.521200000000000108e-01,3.248900000000000121e-01,3.854799999999999893e-01,3.993200000000000083e-01,3.996600000000000152e-01,3.617299999999999960e-01,2.861400000000000055e-01,2.300000000000000100e-01,2.728900000000000214e-01,3.546599999999999753e-01,4.019099999999999895e-01,3.974500000000000255e-01,3.788500000000000201e-01,3.396299999999999875e-01,3.026499999999999746e-01,3.184699999999999753e-01,3.908900000000000152e-01,4.414299999999999891e-01,4.216900000000000093e-01,3.676200000000000023e-01,3.311399999999999899e-01,3.295500000000000096e-01,3.467500000000000027e-01,3.660700000000000065e-01,3.533200000000000229e-01,3.067900000000000071e-01,2.526599999999999957e-01,2.409900000000000098e-01,2.565299999999999803e-01,2.573699999999999877e-01,2.206599999999999950e-01,2.063000000000000111e-01,2.531700000000000061e-01,3.070399999999999796e-01,2.783100000000000018e-01,1.887099999999999889e-01,1.438399999999999956e-01,1.836800000000000099e-01,2.532300000000000106e-01,2.968100000000000183e-01,3.191399999999999793e-01,3.261000000000000010e-01,3.328999999999999737e-01,3.502700000000000258e-01,3.839099999999999735e-01,3.693600000000000216e-01,2.682300000000000240e-01,1.330800000000000038e-01,1.014700000000000046e-01,1.968799999999999994e-01,2.759699999999999931e-01,2.093200000000000061e-01,8.694399999999999351e-02,6.895400000000000140e-02,1.255000000000000004e-01,1.160800000000000026e-01,4.649299999999999961e-02,4.950500000000000039e-02,1.237800000000000011e-01,1.620800000000000018e-01,1.336499999999999910e-01,1.208499999999999991e-01,1.342599999999999905e-01,1.394100000000000061e-01,1.340600000000000125e-01,1.583100000000000063e-01,1.895799999999999985e-01,1.909500000000000086e-01,1.823299999999999921e-01,2.293699999999999906e-01,3.430799999999999961e-01,4.511600000000000055e-01,4.760800000000000032e-01,4.184800000000000186e-01,3.644000000000000017e-01,3.691099999999999937e-01,4.103700000000000125e-01,4.231800000000000006e-01,4.210900000000000198e-01,4.502800000000000136e-01,5.234299999999999509e-01,5.732000000000000428e-01,5.754799999999999915e-01,5.713399999999999590e-01,6.090200000000000058e-01,6.583999999999999853e-01,6.729399999999999826e-01,6.581099999999999728e-01,6.572200000000000264e-01,6.846999999999999753e-01,7.105000000000000204e-01,7.130199999999999871e-01,6.934500000000000108e-01,6.764799999999999702e-01,6.654600000000000515e-01,6.540300000000000002e-01,6.402799999999999603e-01,6.392900000000000249e-01,6.408700000000000507e-01,6.401200000000000223e-01,6.415199999999999791e-01,6.335399999999999920e-01,6.083600000000000119e-01,6.144500000000000517e-01,6.650399999999999645e-01,6.643400000000000416e-01,6.188599999999999657e-01,7.015700000000000269e-01,8.677700000000000413e-01,7.595800000000000329e-01,4.282099999999999795e-01,5.719400000000000039e-01,1.514299999999999979e+00,5.000000000000000000e+00
5.456600000000000339e-01,-1.014399999999999968e+00,-2.316699999999999982e+00,-3.633999999999999897e+00,-4.196900000000000297e+00,-3.758100000000000218e+00,-3.194399999999999906e+00,-2.221799999999999997e+00,-1.588600000000000012e+00,-1.202099999999999946e+00,-5.894899999999999585e-01,-4.551100000000000145e-01,-2.016100000000000114e-01,5.558300000000000046e-02,-9.513299999999999534e-02,2.346399999999999875e-02,-2.915599999999999858e-01,-4.050599999999999756e-01,-2.693499999999999783e-01,-1.974799999999999889e-01,-3.242899999999999949e-02,-5.012600000000000389e-01,-3.996600000000000152e-01,-2.829999999999999738e-01,-2.029499999999999915e-01,-5.701600000000000001e-01,-7.772400000000000420e-01,-4.194200000000000150e-01,-3.755100000000000104e-01,-6.380900000000000460e-01,-9.690800000000000525e-01,-7.802000000000000046e-01,-6.170799999999999619e-01,-8.981700000000000239e-01,-9.704899999999999638e-01,-7.743700000000000028e-01,-6.506199999999999761e-01,-6.803000000000000158e-01,-1.015099999999999891e+00,-9.709299999999999597e-01,-7.922400000000000553e-01,-1.011300000000000088e+00,-7.056200000000000250e-01,-5.105100000000000193e-01,-5.711699999999999555e-01,-6.747100000000000319e-01,-5.731300000000000283e-01,-1.568700000000000094e-01,-2.195000000000000007e-01,-2.693200000000000038e-01,-1.252000000000000057e-01,-2.119199999999999973e-01,-2.390899999999999970e-02,6.299399999999999444e-02,5.563599999999999796e-02,8.451699999999999491e-02,-8.082999999999999907e-03,-3.226000000000000135e-03,8.461599999999999677e-02,2.194099999999999870e-02,2.778599999999999959e-01,3.538499999999999979e-01,-2.914200000000000124e-02,-5.068199999999999789e-02,1.673099999999999865e-01,3.876800000000000246e-01,1.766399999999999915e-01,3.831400000000000083e-02,3.568999999999999950e-01,4.970100000000000073e-01,6.535300000000000553e-01,5.124199999999999866e-01,4.186900000000000066e-01,5.066300000000000248e-01,8.261600000000000055e-01,6.877699999999999925e-01,5.970199999999999951e-01,7.137200000000000211e-01,8.464599999999999902e-01,9.036300000000000443e-01,8.501499999999999613e-01,9.964800000000000324e-01,7.943400000000000460e-01,8.195700000000000207e-01,5.953800000000000203e-01,4.488300000000000067e-01,7.009699999999999820e-01,5.371500000000000163e-01,6.917699999999999960e-01,8.394099999999999895e-01,5.876700000000000257e-01,2.222699999999999954e-01,5.267300000000000315e-01,8.423100000000000032e-01,6.736799999999999455e-01,6.932599999999999874e-01,1.048899999999999944e+00,8.042000000000000259e-01,1.012899999999999912e+00,1.533300000000000107e+00,1.602400000000000047e+00,1.800400000000000000e+00,2.146100000000000119e+00,1.995300000000000074e+00,1.892400000000000082e+00,2.119600000000000151e+00,1.480099999999999971e+00,1.070999999999999952e+00,1.186199999999999921e+00,8.632999999999999563e-01,3.015599999999999947e-01,-1.269399999999999973e-01,-3.014800000000000257e-01,-4.360999999999999877e-01,-2.848200000000000176e-01,-2.246400000000000063e-01,-3.088000000000000189e-01,-3.012900000000000023e-01,-1.314899999999999958e-01,-3.889900000000000024e-01,-4.005699999999999816e-01,-3.400199999999999889e-01,-4.131400000000000072e-01,-3.918599999999999861e-01,-3.602099999999999747e-01,-2.808899999999999730e-01,-3.147800000000000042e-01,6.114300000000000290e-02,2.944599999999999995e-01,3.246299999999999741e-01,8.946399999999999908e-01,7.775300000000000544e-01,1.119199999999999973e+00,9.029800000000000049e-01,5.541000000000000369e-01,4.970499999999999918e-01,4.181199999999999917e-01,7.031100000000000128e-01,1.064599999999999991e+00,-4.485299999999999704e-02,1.000000000000000000e+00
-1.135099999999999998e+00,-1.850899999999999990e+00,-1.940700000000000092e+00,-2.390800000000000036e+00,-2.554899999999999949e+00,-2.773400000000000087e+00,-2.549700000000000077e+00,-2.394200000000000106e+00,-1.969400000000000039e+00,-1.333299999999999930e+00,-7.755499999999999616e-01,-5.525099999999999456e-01,-4.083899999999999753e-01,-6.208099999999999730e-02,1.733599999999999863e-01,2.533000000000000251e-01,2.480700000000000127e-01,1.777400000000000091e-01,1.428200000000000025e-01,1.310099999999999876e-01,1.198599999999999943e-01,1.676999999999999880e-01,1.948499999999999954e-01,1.583900000000000030e-01,2.031499999999999972e-01,2.825300000000000034e-01,1.904099999999999959e-01,1.818299999999999916e-01,2.601999999999999869e-01,1.666600000000000026e-01,1.142100000000000060e-01,1.749600000000000044e-01,2.514500000000000068e-01,2.299100000000000033e-01,1.797499999999999931e-01,1.450200000000000100e-01,1.423099999999999921e-01,1.952800000000000091e-01,1.013799999999999979e-01,4.446599999999999858e-02,1.734499999999999931e-01,2.056600000000000095e-01,1.080699999999999994e-01,1.598499999999999921e-01,2.341799999999999993e-01,1.467900000000000038e-01,1.034899999999999987e-01,6.759300000000000030e-02,8.184400000000000008e-02,1.703800000000000037e-01,1.967200000000000060e-01,1.725399999999999989e-01,1.551599999999999924e-01,1.490499999999999881e-01,9.125999999999999390e-02,1.556099999999999983e-01,1.846700000000000008e-01,1.024700000000000055e-01,1.987899999999999945e-01,2.746100000000000207e-01,2.356399999999999884e-01,2.570899999999999852e-01,2.339499999999999913e-01,2.728800000000000114e-01,3.166700000000000070e-01,2.994700000000000140e-01,3.777200000000000002e-01,3.959699999999999886e-01,3.925100000000000255e-01,3.936999999999999944e-01,4.165900000000000158e-01,4.823899999999999855e-01,5.166100000000000136e-01,4.650599999999999734e-01,4.496899999999999786e-01,5.189200000000000479e-01,4.470600000000000129e-01,4.630500000000000171e-01,4.504400000000000071e-01,4.563099999999999934e-01,4.814899999999999736e-01,3.735800000000000232e-01,4.630400000000000071e-01,4.359299999999999842e-01,4.433199999999999918e-01,5.180700000000000305e-01,4.852199999999999847e-01,5.233299999999999619e-01,5.101900000000000324e-01,4.917500000000000204e-01,5.139000000000000234e-01,4.825499999999999790e-01,4.321800000000000086e-01,4.923699999999999743e-01,5.335299999999999487e-01,5.137100000000000000e-01,5.514900000000000357e-01,5.261700000000000266e-01,5.053800000000000514e-01,5.863199999999999523e-01,5.227600000000000025e-01,5.204499999999999682e-01,6.207399999999999585e-01,5.915500000000000203e-01,6.096200000000000507e-01,6.090900000000000203e-01,6.587300000000000377e-01,7.189799999999999525e-01,7.910399999999999654e-01,8.494000000000000439e-01,7.651299999999999768e-01,7.851799999999999891e-01,8.204399999999999471e-01,7.825400000000000134e-01,8.373699999999999477e-01,8.752400000000000180e-01,8.428099999999999481e-01,8.274899999999999478e-01,7.528399999999999537e-01,6.327199999999999491e-01,5.351799999999999891e-01,4.997400000000000175e-01,5.559199999999999697e-01,6.785499999999999865e-01,7.310600000000000431e-01,6.464699999999999891e-01,4.640000000000000235e-01,1.781699999999999950e-01,-5.535000000000000336e-02,-1.335199999999999998e-01,-1.482600000000000029e-01,-3.046499999999999764e-01,-5.880199999999999871e-01,-1.091800000000000104e+00,-1.749400000000000066e+00,-2.245400000000000063e+00,-3.296100000000000030e+00,-3.421800000000000175e+00,-4.883700000000000152e+00,-3.562100000000000044e+00,2.000000000000000000e+00
-2.404900000000000093e-01,-8.608900000000000441e-01,-6.627100000000000213e-01,-9.996000000000000441e-01,-7.479299999999999837e-01,-7.373199999999999754e-01,-7.400600000000000511e-01,-8.876500000000000501e-01,-9.538999999999999702e-01,-8.921499999999999986e-01,-7.773400000000000309e-01,-9.542000000000000481e-01,-1.055099999999999927e+00,-1.131999999999999895e+00,-1.076400000000000023e+00,-1.483899999999999997e+00,-1.314200000000000035e+00,-1.160300000000000109e+00,-1.371199999999999974e+00,-1.321399999999999908e+00,-1.529300000000000104e+00,-1.553199999999999914e+00,-1.353199999999999958e+00,-1.604500000000000037e+00,-1.727500000000000036e+00,-1.322699999999999987e+00,-1.362500000000000044e+00,-1.393399999999999972e+00,-1.356000000000000094e+00,-1.122000000000000108e+00,-1.007800000000000029e+00,-8.466599999999999682e-01,-7.703799999999999537e-01,-7.312800000000000411e-01,-4.307900000000000063e-01,-3.134399999999999964e-01,-2.276100000000000068e-01,-3.203500000000000236e-01,-2.028399999999999925e-01,1.166299999999999976e-02,4.888399999999999690e-02,-1.897800000000000042e-01,-2.878000000000000003e-01,-3.680399999999999783e-01,2.380500000000000116e-01,4.119999999999999774e-01,1.071799999999999975e-01,-2.433199999999999946e-02,-5.567899999999999933e-02,-2.485999999999999877e-01,-2.841500000000000137e-01,-2.965700000000000003e-01,-1.786600000000000132e-01,-4.398099999999999926e-02,-2.999200000000000199e-01,-1.769600000000000062e-01,-2.293199999999999961e-01,-1.463299999999999879e-01,1.760400000000000020e-01,-6.986399999999999555e-02,-1.170299999999999951e-01,2.453599999999999948e-01,1.722400000000000042e-01,1.255999999999999894e-01,1.031900000000000039e-01,4.545899999999999941e-01,4.889899999999999802e-01,3.231200000000000183e-01,4.427300000000000124e-01,6.318099999999999827e-01,4.151500000000000190e-01,4.104499999999999815e-01,2.873200000000000198e-01,4.311599999999999877e-01,2.821699999999999764e-01,3.382299999999999751e-01,5.512700000000000378e-01,4.058499999999999885e-01,1.803200000000000081e-01,2.520100000000000118e-01,1.743800000000000072e-01,1.084399999999999947e-01,1.756900000000000128e-01,1.329100000000000004e-01,3.164100000000000246e-01,2.159699999999999953e-01,2.437000000000000000e-01,1.610300000000000065e-01,2.106300000000000117e-01,1.943300000000000027e-01,1.416300000000000059e-01,4.079699999999999993e-01,4.568900000000000183e-01,8.947500000000000453e-01,1.123799999999999910e+00,9.361899999999999666e-01,1.316699999999999982e+00,1.620900000000000007e+00,1.967899999999999983e+00,1.807700000000000085e+00,2.258700000000000152e+00,2.660099999999999909e+00,2.820600000000000218e+00,2.634799999999999809e+00,2.508399999999999963e+00,2.287399999999999878e+00,2.129300000000000193e+00,1.968900000000000095e+00,1.734399999999999942e+00,1.173599999999999977e+00,8.128499999999999615e-01,2.388299999999999867e-01,-4.743600000000000039e-01,-8.493699999999999584e-01,-6.261700000000000044e-01,-7.221199999999999841e-01,-6.874599999999999600e-01,-4.921499999999999764e-01,-5.815500000000000114e-01,-5.608600000000000252e-01,-4.569799999999999973e-01,-6.446199999999999708e-01,-8.686500000000000332e-01,-5.214400000000000146e-01,-7.949300000000000255e-01,-7.392400000000000082e-01,-9.547200000000000131e-01,-6.901100000000000012e-01,-5.473299999999999832e-01,-5.605099999999999527e-01,-3.720399999999999818e-01,-1.778800000000000103e-01,4.535500000000000087e-01,1.175899999999999945e+00,1.392200000000000104e+00,1.470299999999999940e+00,1.907499999999999973e+00,1.652700000000000058e+00,1.558699999999999974e+00,9.013299999999999645e-01,3.000000000000000000e+00
9.033599999999999963e-02,-1.275799999999999990e-01,1.940099999999999880e-01,1.631100000000000050e-01,5.087599999999999761e-02,1.267999999999999960e-01,1.239600000000000007e-01,8.438600000000000267e-02,1.593400000000000094e-01,2.038600000000000134e-01,1.993000000000000049e-01,2.253300000000000025e-01,1.982399999999999995e-01,1.443699999999999983e-01,1.628000000000000003e-01,1.596799999999999886e-01,9.824399999999999800e-02,1.208100000000000007e-01,2.353000000000000091e-01,3.052599999999999758e-01,2.937100000000000266e-01,2.570500000000000007e-01,2.277200000000000057e-01,2.300300000000000122e-01,2.808999999999999830e-01,3.332999999999999852e-01,3.571400000000000130e-01,4.038499999999999868e-01,5.053800000000000514e-01,6.390000000000000124e-01,7.857199999999999740e-01,9.920600000000000529e-01,1.299400000000000110e+00,1.614700000000000024e+00,1.792699999999999960e+00,1.788599999999999968e+00,1.672099999999999920e+00,1.515500000000000069e+00,1.305700000000000083e+00,1.022999999999999909e+00,6.998699999999999921e-01,3.718799999999999883e-01,1.073299999999999949e-01,-7.912500000000000089e-02,-2.375200000000000089e-01,-3.443999999999999839e-01,-3.563899999999999846e-01,-3.201499999999999901e-01,-2.174099999999999921e-01,1.050500000000000045e-01,4.894600000000000062e-01,4.640299999999999980e-01,-1.514099999999999994e-02,-6.070799999999999530e-01,-1.256399999999999961e+00,-2.058699999999999974e+00,-2.813099999999999934e+00,-3.263100000000000112e+00,-3.413499999999999979e+00,-3.395599999999999952e+00,-3.307500000000000107e+00,-3.183699999999999974e+00,-3.016999999999999904e+00,-2.871599999999999930e+00,-2.769400000000000084e+00,-2.480900000000000105e+00,-1.918700000000000072e+00,-1.405299999999999994e+00,-1.086400000000000032e+00,-7.883299999999999752e-01,-5.522700000000000387e-01,-4.783700000000000174e-01,-3.360299999999999954e-01,2.968000000000000152e-03,2.812500000000000000e-01,3.634299999999999753e-01,3.872099999999999986e-01,3.732199999999999962e-01,3.118299999999999961e-01,2.964600000000000013e-01,3.065300000000000247e-01,2.723800000000000110e-01,2.394199999999999939e-01,2.761700000000000266e-01,3.564800000000000191e-01,3.896899999999999809e-01,3.499800000000000133e-01,2.982099999999999751e-01,3.093000000000000194e-01,3.678000000000000158e-01,3.905899999999999928e-01,3.850999999999999979e-01,3.931399999999999895e-01,3.795000000000000040e-01,3.417200000000000237e-01,3.328599999999999892e-01,3.324900000000000078e-01,2.871600000000000263e-01,2.474099999999999910e-01,3.016400000000000192e-01,4.011799999999999811e-01,4.386499999999999844e-01,4.107299999999999840e-01,3.705300000000000260e-01,3.570900000000000185e-01,3.807800000000000074e-01,4.189800000000000191e-01,4.296300000000000119e-01,3.731200000000000072e-01,2.827899999999999858e-01,2.648699999999999943e-01,3.242399999999999727e-01,3.119999999999999996e-01,2.032499999999999862e-01,2.016699999999999882e-01,3.084000000000000075e-01,2.569600000000000217e-01,1.039400000000000046e-01,1.442499999999999893e-01,2.983199999999999741e-01,3.257099999999999995e-01,2.928899999999999837e-01,3.045700000000000074e-01,2.671100000000000141e-01,1.747199999999999864e-01,1.550199999999999911e-01,2.092499999999999916e-01,2.237899999999999889e-01,1.858200000000000129e-01,1.725099999999999967e-01,1.930999999999999939e-01,2.102199999999999902e-01,2.261199999999999877e-01,2.012700000000000045e-01,1.594200000000000061e-01,2.813499999999999890e-01,4.022100000000000120e-01,1.689299999999999968e-01,1.168799999999999978e-01,9.733500000000000485e-01,4.000000000000000000e+00
3.128600000000000270e-01,2.297399999999999998e-01,3.998399999999999732e-01,2.046600000000000086e-01,4.316300000000000137e-01,2.840099999999999847e-01,2.960400000000000253e-01,4.026699999999999724e-01,2.524100000000000232e-01,2.718900000000000206e-01,3.022500000000000187e-01,2.613099999999999867e-01,3.587199999999999833e-01,3.414499999999999758e-01,4.021899999999999920e-01,4.264600000000000057e-01,3.420699999999999852e-01,5.164400000000000102e-01,7.640400000000000524e-01,1.178600000000000092e+00,1.607099999999999973e+00,1.794200000000000017e+00,1.799500000000000099e+00,1.537099999999999911e+00,1.154300000000000104e+00,6.765499999999999847e-01,4.201300000000000173e-02,-3.526799999999999935e-01,-5.417300000000000448e-01,-7.594800000000000439e-01,-7.084500000000000242e-01,-4.960700000000000109e-01,-1.243999999999999967e-01,5.550000000000000488e-01,6.941899999999999737e-01,1.224699999999999955e-01,-4.882500000000000173e-01,-1.558999999999999941e+00,-2.743799999999999795e+00,-3.368199999999999861e+00,-3.909800000000000164e+00,-4.102800000000000225e+00,-3.901100000000000012e+00,-3.735899999999999999e+00,-3.467299999999999827e+00,-2.898499999999999854e+00,-1.988099999999999978e+00,-1.203400000000000025e+00,-1.035099999999999909e+00,-1.085599999999999898e+00,-6.741800000000000015e-01,-1.280100000000000127e-01,1.422900000000000033e-02,7.077500000000000457e-02,1.639599999999999946e-01,2.260000000000000064e-01,2.861600000000000255e-01,2.633499999999999730e-01,2.738800000000000123e-01,2.226499999999999868e-01,2.304900000000000004e-01,2.524600000000000177e-01,1.773399999999999976e-01,2.917699999999999738e-01,2.791199999999999792e-01,2.317700000000000038e-01,2.149099999999999899e-01,1.258700000000000097e-01,1.991499999999999937e-01,1.708600000000000119e-01,2.023999999999999966e-01,3.059100000000000152e-01,1.793899999999999939e-01,1.250199999999999922e-01,1.059599999999999986e-01,8.614999999999999394e-03,1.417299999999999949e-01,1.424700000000000133e-01,2.058899999999999966e-02,1.236600000000000060e-01,1.724300000000000138e-02,-2.257699999999999985e-02,7.914100000000000301e-02,7.493299999999999961e-02,9.921599999999999864e-02,3.280399999999999983e-02,3.255600000000000160e-02,3.522600000000000037e-02,-1.608899999999999914e-02,-6.172000000000000403e-03,-3.179699999999999888e-02,-1.744300000000000017e-02,-5.833999999999999776e-03,-4.781699999999999839e-02,2.318900000000000128e-02,7.148999999999999799e-02,3.949300000000000033e-02,1.160599999999999965e-01,1.121100000000000013e-01,1.691400000000000126e-01,1.947299999999999864e-01,1.486099999999999921e-01,3.068000000000000171e-01,2.160400000000000098e-01,2.724599999999999800e-01,5.160700000000000287e-01,4.084400000000000253e-01,4.507599999999999940e-01,5.559199999999999697e-01,4.459000000000000186e-01,4.452099999999999946e-01,5.087699999999999445e-01,5.265100000000000335e-01,5.417300000000000448e-01,4.336400000000000254e-01,3.961500000000000021e-01,4.179200000000000137e-01,3.620300000000000185e-01,3.665800000000000169e-01,3.312999999999999834e-01,3.048299999999999899e-01,3.145299999999999763e-01,2.801400000000000001e-01,3.168400000000000105e-01,4.083999999999999853e-01,4.629300000000000082e-01,4.710599999999999787e-01,3.735200000000000187e-01,3.161399999999999766e-01,3.903200000000000003e-01,3.693699999999999761e-01,2.776600000000000179e-01,3.244000000000000217e-01,3.337499999999999911e-01,3.750499999999999945e-01,3.819500000000000117e-01,3.564100000000000046e-01,5.916900000000000492e-01,2.396500000000000019e-01,7.702999999999999847e-01,5.000000000000000000e+00
6.611299999999999955e-01,-1.552499999999999991e+00,-3.124600000000000044e+00,-4.313399999999999679e+00,-4.017000000000000348e+00,-3.005999999999999783e+00,-1.832400000000000029e+00,-1.503900000000000015e+00,-1.071700000000000097e+00,-5.213200000000000056e-01,-3.863699999999999912e-01,-4.690599999999999770e-01,-4.715599999999999792e-01,-4.370200000000000196e-01,-4.313400000000000012e-01,-3.116599999999999926e-01,-3.418200000000000127e-01,-3.971399999999999930e-01,-4.769200000000000106e-01,-4.599900000000000100e-01,-3.900299999999999878e-01,-5.190099999999999714e-01,-7.730900000000000549e-01,-6.725499999999999812e-01,-4.883700000000000263e-01,-6.069799999999999640e-01,-8.067100000000000382e-01,-9.042999999999999927e-01,-7.561999999999999833e-01,-7.203399999999999803e-01,-9.670999999999999597e-01,-8.654899999999999816e-01,-8.881599999999999495e-01,-1.003900000000000015e+00,-9.669600000000000417e-01,-1.058699999999999974e+00,-1.150700000000000056e+00,-1.154900000000000038e+00,-8.688099999999999712e-01,-8.347900000000000320e-01,-9.807900000000000507e-01,-8.415000000000000258e-01,-7.154500000000000304e-01,-5.038799999999999946e-01,-3.318200000000000038e-01,-4.434799999999999853e-01,-4.269000000000000017e-01,-4.216400000000000148e-01,-3.030100000000000016e-01,-1.912600000000000133e-01,-1.720399999999999985e-01,-1.194000000000000061e-01,-1.586200000000000110e-01,-1.100099999999999967e-01,-1.825299999999999978e-01,-7.595999999999999974e-02,-7.880900000000000405e-02,-9.772100000000000231e-02,-1.272600000000000120e-01,-1.691699999999999871e-01,-3.422200000000000242e-02,2.974900000000000114e-02,-1.281499999999999861e-01,-7.333099999999999341e-02,3.081199999999999911e-02,4.211399999999999866e-02,7.963800000000000046e-02,1.985500000000000043e-01,2.070299999999999918e-01,2.250199999999999978e-01,3.205700000000000216e-01,2.754099999999999882e-01,3.629499999999999948e-01,2.811000000000000165e-01,3.475500000000000256e-01,3.116900000000000226e-01,3.304500000000000215e-01,2.285800000000000054e-01,2.732299999999999729e-01,1.905900000000000094e-01,1.985999999999999988e-01,2.752499999999999947e-01,3.695399999999999796e-01,2.791600000000000192e-01,2.080299999999999927e-01,2.102199999999999902e-01,1.962800000000000100e-01,2.716799999999999771e-01,1.656100000000000072e-01,2.667399999999999771e-01,1.901599999999999957e-01,1.806800000000000073e-01,3.030399999999999761e-01,2.821899999999999964e-01,2.984200000000000186e-01,4.358000000000000207e-01,5.764000000000000234e-01,8.011099999999999888e-01,9.463300000000000045e-01,1.147399999999999975e+00,1.372500000000000053e+00,1.683300000000000018e+00,1.834600000000000009e+00,1.901999999999999913e+00,1.861299999999999955e+00,1.680299999999999905e+00,1.608000000000000096e+00,1.364400000000000057e+00,1.180700000000000083e+00,9.330699999999999550e-01,6.227599999999999802e-01,4.196500000000000230e-01,1.961199999999999888e-01,1.361400000000000110e-01,1.875699999999999867e-01,2.358500000000000041e-01,1.545900000000000052e-01,1.545799999999999952e-01,2.108700000000000019e-01,3.163199999999999901e-01,3.328900000000000192e-01,3.344400000000000150e-01,2.738099999999999978e-01,2.168700000000000072e-01,2.553599999999999759e-01,2.750400000000000067e-01,3.619600000000000040e-01,4.063700000000000090e-01,9.204900000000000304e-01,1.481000000000000094e+00,1.416600000000000081e+00,1.280799999999999939e+00,1.494299999999999962e+00,1.618800000000000017e+00,1.447400000000000020e+00,1.238599999999999923e+00,1.749700000000000033e+00,1.986799999999999899e+00,1.422800000000000065e+00,-3.577799999999999869e-01,1.000000000000000000e+00
-9.451699999999999546e-01,-1.640700000000000047e+00,-1.591599999999999904e+00,-2.028799999999999937e+00,-2.107499999999999929e+00,-2.353600000000000136e+00,-2.354999999999999982e+00,-2.253299999999999859e+00,-2.116200000000000081e+00,-1.584899999999999975e+00,-9.703199999999999603e-01,-5.469500000000000473e-01,-3.240399999999999947e-01,-1.607099999999999917e-01,7.856599999999999695e-02,3.336899999999999866e-01,4.023999999999999799e-01,3.616599999999999815e-01,3.978700000000000014e-01,4.043900000000000272e-01,2.596100000000000074e-01,1.755200000000000093e-01,2.861600000000000255e-01,3.798400000000000110e-01,3.766999999999999793e-01,3.837300000000000155e-01,3.621900000000000119e-01,3.371500000000000052e-01,3.746499999999999830e-01,3.067400000000000126e-01,1.730700000000000016e-01,2.173200000000000132e-01,3.049299999999999788e-01,2.974899999999999767e-01,3.380199999999999871e-01,3.239000000000000212e-01,2.282500000000000084e-01,2.140900000000000025e-01,2.194000000000000117e-01,2.805400000000000116e-01,3.338300000000000156e-01,3.254299999999999971e-01,3.292300000000000226e-01,2.696299999999999808e-01,2.512499999999999734e-01,2.441800000000000082e-01,2.635199999999999765e-01,3.428599999999999981e-01,2.595100000000000184e-01,1.507900000000000074e-01,1.143699999999999994e-01,1.894599999999999895e-01,3.403900000000000259e-01,3.151300000000000212e-01,2.315000000000000113e-01,1.690899999999999903e-01,2.039100000000000079e-01,3.250700000000000256e-01,3.020599999999999952e-01,2.939499999999999891e-01,3.524200000000000110e-01,3.370199999999999863e-01,3.650399999999999756e-01,4.026100000000000234e-01,3.889000000000000234e-01,4.920399999999999774e-01,5.422400000000000553e-01,4.886499999999999733e-01,5.083499999999999686e-01,4.898399999999999976e-01,5.305800000000000516e-01,5.629800000000000360e-01,5.518600000000000172e-01,6.486800000000000344e-01,6.564999999999999725e-01,6.156899999999999595e-01,5.867299999999999738e-01,5.654900000000000482e-01,5.661500000000000421e-01,5.000700000000000145e-01,5.249399999999999622e-01,5.742599999999999927e-01,5.113199999999999967e-01,4.899100000000000121e-01,5.225300000000000500e-01,5.275100000000000344e-01,4.829300000000000259e-01,4.536600000000000077e-01,4.921300000000000119e-01,5.272799999999999709e-01,5.168700000000000516e-01,5.107800000000000118e-01,5.408500000000000529e-01,5.635700000000000154e-01,5.060499999999999998e-01,4.339500000000000024e-01,4.684900000000000175e-01,4.843299999999999828e-01,4.314399999999999902e-01,4.638599999999999945e-01,5.128000000000000336e-01,4.986800000000000122e-01,5.316199999999999815e-01,5.645200000000000218e-01,5.299000000000000377e-01,5.112700000000000022e-01,5.048700000000000410e-01,5.376600000000000268e-01,6.673999999999999932e-01,7.121899999999999897e-01,6.575699999999999878e-01,6.814500000000000002e-01,6.373999999999999666e-01,5.835700000000000331e-01,6.380400000000000515e-01,6.158900000000000485e-01,5.583599999999999675e-01,4.819300000000000250e-01,4.413799999999999946e-01,5.534799999999999720e-01,5.813700000000000534e-01,4.869600000000000040e-01,4.754999999999999782e-01,3.530800000000000050e-01,1.425700000000000023e-01,2.921199999999999838e-02,-7.653799999999999493e-02,-1.690200000000000036e-02,-4.059200000000000308e-02,-3.488200000000000189e-01,-6.394800000000000484e-01,-1.066799999999999971e+00,-1.639299999999999979e+00,-2.366299999999999848e+00,-2.861800000000000122e+00,-3.551600000000000090e+00,-4.174500000000000099e+00,-3.669099999999999806e+00,-3.678300000000000125e+00,-1.631399999999999961e+00,2.000000000000000000e+00
1.117899999999999894e+00,8.044999999999999929e-01,7.815100000000000380e-01,1.165200000000000014e+00,9.246799999999999464e-01,-2.200900000000000079e-01,-1.392300000000000093e+00,-2.665900000000000158e+00,-3.409899999999999931e+00,-3.912100000000000133e+00,-4.040499999999999758e+00,-3.724499999999999922e+00,-3.264600000000000168e+00,-2.147600000000000176e+00,-1.310799999999999965e+00,-1.171799999999999953e+00,-1.134900000000000020e+00,-5.642099999999999893e-01,-1.611799999999999899e-01,-1.055399999999999949e-01,-1.339700000000000057e-01,-1.249099999999999933e-01,-1.668700000000000044e-02,-1.223599999999999965e-01,-1.802499999999999936e-01,-1.146199999999999997e-01,-9.070300000000000584e-02,-1.567300000000000082e-01,-1.322000000000000119e-01,-2.393899999999999917e-01,-1.827499999999999958e-01,-2.649500000000000188e-01,-1.914099999999999968e-01,-2.595399999999999929e-01,-3.128900000000000015e-01,-2.975599999999999912e-01,-2.835300000000000042e-01,-3.936899999999999844e-01,-3.048399999999999999e-01,-3.387899999999999801e-01,-3.819000000000000172e-01,-5.071600000000000552e-01,-4.866199999999999970e-01,-5.410199999999999454e-01,-4.546499999999999986e-01,-5.328399999999999803e-01,-7.376399999999999624e-01,-7.098700000000000010e-01,-6.847999999999999643e-01,-6.181799999999999518e-01,-7.099900000000000100e-01,-6.438800000000000079e-01,-6.910500000000000531e-01,-6.755799999999999583e-01,-5.848700000000000010e-01,-5.718299999999999494e-01,-4.478599999999999803e-01,-4.419399999999999995e-01,-3.324900000000000078e-01,-2.439500000000000002e-01,-3.393700000000000050e-01,-2.656600000000000072e-01,-2.342299999999999938e-01,-2.125199999999999867e-01,3.044499999999999984e-02,1.456199999999999994e-01,4.195200000000000318e-02,1.519399999999999917e-01,1.752499999999999891e-01,-4.878699999999999704e-02,1.903600000000000014e-01,3.316999999999999948e-01,2.730199999999999849e-01,1.097100000000000020e-01,1.905000000000000027e-01,6.079799999999999788e-02,8.182000000000000384e-02,2.348600000000000132e-01,2.210399999999999865e-01,1.522799999999999987e-01,1.734799999999999953e-01,1.635999999999999954e-01,1.539399999999999935e-01,1.638799999999999979e-01,2.972500000000000142e-01,2.923499999999999988e-01,3.254000000000000226e-01,1.973399999999999876e-01,2.487900000000000111e-01,2.066099999999999881e-01,1.889599999999999891e-01,2.641999999999999904e-01,3.674499999999999988e-01,3.189000000000000168e-01,4.004199999999999982e-01,4.952199999999999935e-01,4.370899999999999785e-01,5.121400000000000396e-01,4.669499999999999762e-01,6.670099999999999918e-01,6.603999999999999870e-01,5.766299999999999759e-01,4.605600000000000249e-01,5.269300000000000095e-01,6.711799999999999988e-01,6.023199999999999665e-01,4.793000000000000038e-01,4.140499999999999736e-01,4.920100000000000029e-01,4.954999999999999960e-01,3.821200000000000152e-01,3.781599999999999961e-01,3.634899999999999798e-01,4.231900000000000106e-01,4.628599999999999937e-01,4.114999999999999769e-01,3.688600000000000212e-01,3.462799999999999767e-01,2.568300000000000027e-01,3.054000000000000048e-01,4.269999999999999907e-01,4.417300000000000115e-01,4.035500000000000198e-01,4.638300000000000201e-01,5.213299999999999601e-01,4.267799999999999927e-01,5.977400000000000491e-01,8.854300000000000503e-01,9.422500000000000320e-01,1.128300000000000081e+00,1.127399999999999958e+00,1.264100000000000001e+00,1.450900000000000079e+00,1.491800000000000015e+00,1.903000000000000025e+00,1.990599999999999925e+00,2.073599999999999888e+00,1.917399999999999993e+00,1.741200000000000081e+00,1.664800000000000058e+00,3.000000000000000000e+00
-6.401499999999999968e-01,-7.773700000000000054e-01,-6.231499999999999817e-01,-7.829800000000000093e-01,-4.572499999999999898e-01,-4.274700000000000166e-01,-3.487799999999999789e-01,-4.678399999999999781e-01,-2.516700000000000048e-01,-1.797100000000000086e-02,-1.420800000000000118e-01,-3.803000000000000269e-01,-3.288200000000000012e-01,-1.634599999999999942e-01,-3.266299999999999759e-01,-2.622099999999999986e-01,-1.167600000000000027e-01,-3.502000000000000113e-01,-3.407600000000000073e-01,-1.687800000000000133e-01,-1.030800000000000050e-01,-3.071699999999999986e-01,-5.750499999999999501e-01,-5.082999999999999741e-01,-3.198900000000000077e-01,-2.156200000000000061e-01,-1.828700000000000117e-02,-4.410800000000000137e-02,-2.112400000000000111e-01,-1.189100000000000018e-01,-1.607899999999999885e-01,-1.069100000000000050e-01,-2.276799999999999935e-01,-3.009000000000000008e-01,-2.414999999999999925e-01,-1.016800000000000065e-01,-1.047000000000000014e-01,-2.516399999999999748e-01,6.701799999999999424e-02,-8.898300000000000654e-02,1.906899999999999915e-02,-2.903599999999999931e-02,-1.503700000000000037e-01,2.452000000000000013e-01,2.104499999999999982e-01,2.037200000000000122e-01,3.625599999999999934e-01,1.809000000000000052e-01,-8.484999999999999487e-03,2.435299999999999965e-02,2.278499999999999970e-01,2.561800000000000188e-01,3.548600000000000088e-01,5.397100000000000231e-01,4.186500000000000221e-01,3.616099999999999870e-01,3.129799999999999804e-01,2.616200000000000192e-01,2.867299999999999849e-01,1.756300000000000083e-01,2.566200000000000148e-01,2.987900000000000000e-01,1.906299999999999939e-01,2.429800000000000015e-01,3.246100000000000096e-01,2.568500000000000227e-01,3.303600000000000286e-02,1.355999999999999983e-01,2.075100000000000000e-01,1.760199999999999959e-02,-2.161200000000000065e-01,8.051400000000000223e-02,2.235699999999999910e-01,-3.330400000000000027e-02,3.587099999999999733e-01,7.349299999999999722e-01,8.991400000000000503e-01,1.064500000000000002e+00,1.107399999999999940e+00,1.288499999999999979e+00,1.295700000000000074e+00,1.594300000000000050e+00,2.115600000000000147e+00,2.295100000000000140e+00,2.648099999999999898e+00,2.710599999999999898e+00,2.617799999999999905e+00,2.513500000000000068e+00,2.394299999999999873e+00,2.314599999999999991e+00,2.152699999999999836e+00,1.973899999999999988e+00,1.691799999999999971e+00,1.399699999999999944e+00,1.190399999999999903e+00,8.728700000000000347e-01,4.506499999999999950e-01,7.151000000000000238e-03,-4.651100000000000234e-01,-7.101300000000000390e-01,-8.238900000000000112e-01,-9.380300000000000304e-01,-9.226999999999999647e-01,-8.807800000000000074e-01,-7.912400000000000544e-01,-8.027600000000000291e-01,-8.942900000000000293e-01,-9.677299999999999791e-01,-1.088300000000000045e+00,-1.260799999999999921e+00,-1.147100000000000009e+00,-9.106600000000000250e-01,-8.784300000000000441e-01,-8.219499999999999584e-01,-1.014899999999999913e+00,-1.106600000000000028e+00,-9.781100000000000350e-01,-9.029599999999999849e-01,-1.062699999999999978e+00,-1.137399999999999967e+00,-8.859200000000000408e-01,-7.804400000000000226e-01,-6.546600000000000197e-01,-4.492700000000000027e-01,-4.916199999999999737e-02,7.034500000000000197e-01,1.205300000000000038e+00,1.364400000000000057e+00,1.330600000000000005e+00,1.110100000000000087e+00,4.752600000000000158e-01,-7.357900000000000551e-01,-1.426500000000000101e+00,-1.757600000000000051e+00,-2.621700000000000141e+00,-2.245600000000000041e+00,-2.369200000000000195e+00,-1.411699999999999955e+00,-1.386100000000000110e+00,-1.559800000000000075e+00,4.000000000000000000e+00
-8.308200000000000029e-01,-2.582399999999999807e+00,-3.493799999999999795e+00,-3.782999999999999918e+00,-3.080400000000000027e+00,-1.916099999999999914e+00,-1.159200000000000008e+00,-9.285799999999999610e-01,-3.506199999999999872e-01,-2.176899999999999946e-01,-2.448099999999999998e-01,-1.668999999999999928e-01,-1.668100000000000138e-01,-1.266400000000000026e-01,-5.114799999999999902e-02,-5.795899999999999663e-02,-1.255799999999999972e-01,-7.782699999999999341e-02,-8.423300000000000232e-02,-1.071099999999999969e-01,-4.230899999999999939e-02,-8.863300000000000345e-02,-1.905000000000000027e-01,-1.986600000000000033e-01,-1.918700000000000128e-01,-1.538200000000000123e-01,-1.767700000000000105e-01,-2.560799999999999743e-01,-2.364400000000000113e-01,-1.813899999999999957e-01,-1.462199999999999889e-01,-8.017699999999999827e-02,-1.046000000000000055e-02,1.328000000000000014e-01,1.759400000000000130e-01,1.678800000000000014e-01,2.897700000000000276e-01,3.164699999999999736e-01,2.956900000000000084e-01,3.708299999999999930e-01,3.610499999999999821e-01,3.196100000000000052e-01,2.596300000000000274e-01,3.174100000000000255e-01,3.629200000000000204e-01,3.043699999999999739e-01,3.900799999999999823e-01,2.947500000000000120e-01,2.054700000000000137e-01,2.507699999999999929e-01,3.774100000000000232e-01,2.970700000000000007e-01,3.276200000000000223e-01,2.988999999999999990e-01,4.228399999999999936e-01,5.527199999999999891e-01,4.807699999999999751e-01,5.792100000000000026e-01,5.875299999999999967e-01,5.800899999999999945e-01,6.899100000000000232e-01,7.620900000000000452e-01,7.307700000000000307e-01,6.746499999999999719e-01,7.489700000000000246e-01,7.694400000000000128e-01,7.296200000000000463e-01,7.582900000000000196e-01,6.927699999999999969e-01,7.831399999999999473e-01,8.307099999999999485e-01,8.887699999999999489e-01,9.898900000000000476e-01,1.130900000000000016e+00,1.244599999999999929e+00,1.510999999999999899e+00,1.834899999999999975e+00,2.050800000000000178e+00,2.037999999999999812e+00,1.773600000000000065e+00,1.615299999999999958e+00,1.411499999999999977e+00,1.143399999999999972e+00,8.110899999999999777e-01,4.455999999999999961e-01,1.201399999999999968e-01,-2.150300000000000128e-02,-3.888199999999999990e-02,2.092799999999999869e-02,-6.981999999999999318e-02,-5.015499999999999819e-02,-1.052600000000000063e-01,1.499699999999999991e-02,-1.012099999999999979e-02,-8.574999999999999289e-03,2.988299999999999984e-02,-2.367299999999999960e-02,-1.912600000000000064e-02,3.280299999999999883e-01,8.727000000000000313e-01,9.773300000000000320e-01,9.337499999999999689e-01,7.964599999999999458e-01,5.833800000000000097e-01,4.070900000000000074e-01,5.040499999999999980e-01,5.939100000000000490e-01,-5.686299999999999688e-01,-2.237499999999999822e+00,-3.415700000000000180e+00,-3.497599999999999820e+00,-3.091299999999999937e+00,-2.167699999999999960e+00,-1.140900000000000025e+00,-9.169500000000000428e-01,-2.771700000000000275e-01,-7.398100000000000509e-02,-1.153300000000000020e-01,-1.864800000000000138e-02,-1.415300000000000065e-02,-5.977999999999999807e-03,-1.057899999999999952e-01,-1.376199999999999923e-01,-3.979099999999999998e-02,-5.442000000000000309e-02,-8.737599999999999534e-02,-1.262199999999999989e-01,-1.603700000000000125e-01,-1.727100000000000024e-01,-1.199100000000000027e-01,-1.648499999999999965e-01,-1.330199999999999994e-01,-1.982599999999999918e-01,-2.558900000000000063e-01,-2.755600000000000271e-01,-2.267399999999999971e-01,-1.799800000000000011e-01,-3.003899999999999904e-01,-2.481599999999999917e-01,-1.814399999999999902e-01,5.000000000000000000e+00
1.649299999999999988e+00,1.121199999999999974e+00,-6.287500000000000311e-01,-1.939899999999999958e+00,-3.439200000000000035e+00,-4.010799999999999699e+00,-3.238100000000000200e+00,-2.127699999999999925e+00,-1.798499999999999988e+00,-1.323600000000000110e+00,-2.361800000000000010e-01,-2.386900000000000133e-01,-2.568900000000000072e-01,-2.381099999999999883e-01,-2.893899999999999806e-01,-3.248400000000000176e-01,-3.187400000000000233e-01,-3.158599999999999741e-01,-3.518100000000000116e-01,-4.578300000000000147e-01,-3.569499999999999895e-01,-4.212699999999999778e-01,-4.296699999999999964e-01,-6.260299999999999754e-01,-6.352900000000000214e-01,-6.669500000000000428e-01,-6.471900000000000430e-01,-7.917100000000000248e-01,-1.050100000000000033e+00,-9.796500000000000208e-01,-1.029900000000000038e+00,-1.084100000000000064e+00,-1.162800000000000056e+00,-1.189599999999999991e+00,-1.372800000000000020e+00,-1.408700000000000063e+00,-1.409599999999999964e+00,-1.468399999999999928e+00,-1.502899999999999903e+00,-1.536799999999999944e+00,-1.441699999999999982e+00,-1.358800000000000008e+00,-1.303199999999999914e+00,-1.044100000000000028e+00,-9.996800000000000130e-01,-8.340100000000000291e-01,-5.381099999999999772e-01,-5.398899999999999810e-01,-3.701999999999999735e-01,-3.090499999999999914e-01,-2.179099999999999926e-01,-1.322099999999999942e-01,-8.172500000000000597e-02,2.983600000000000141e-02,-8.981799999999999506e-02,9.450999999999999332e-03,-1.369500000000000058e-02,3.003799999999999873e-02,8.514499999999999846e-02,1.170400000000000051e-01,2.138700000000000045e-01,2.218600000000000017e-01,3.550699999999999967e-01,3.157400000000000206e-01,3.992999999999999883e-01,4.687700000000000200e-01,5.600100000000000078e-01,4.200900000000000190e-01,5.355999999999999650e-01,6.536899999999999933e-01,7.139400000000000190e-01,6.914200000000000346e-01,5.643000000000000238e-01,6.844299999999999828e-01,6.820899999999999741e-01,7.284699999999999509e-01,6.697499999999999565e-01,5.996200000000000419e-01,7.397700000000000387e-01,7.469200000000000284e-01,6.144300000000000317e-01,5.974399999999999711e-01,4.683700000000000085e-01,5.365699999999999914e-01,4.848100000000000187e-01,4.701299999999999923e-01,4.706199999999999828e-01,4.123299999999999743e-01,3.748099999999999765e-01,4.021799999999999820e-01,3.802599999999999869e-01,3.324199999999999933e-01,2.731000000000000094e-01,3.425000000000000266e-01,3.336299999999999821e-01,4.368699999999999806e-01,3.154000000000000137e-01,3.120399999999999840e-01,2.721500000000000030e-01,3.332100000000000062e-01,4.029300000000000104e-01,3.355600000000000249e-01,3.480199999999999960e-01,3.876299999999999746e-01,4.243100000000000205e-01,3.786399999999999766e-01,6.770899999999999697e-01,1.075199999999999934e+00,1.378800000000000026e+00,1.126700000000000035e+00,1.130300000000000082e+00,1.040699999999999958e+00,1.050100000000000033e+00,1.058699999999999974e+00,1.034100000000000019e+00,9.027699999999999614e-01,5.431399999999999562e-01,5.525999999999999662e-03,-4.118299999999999739e-02,-8.049399999999999611e-02,-1.827900000000000011e-02,3.666300000000000114e-02,-1.087599999999999956e-01,9.777800000000000380e-02,-5.516999999999999682e-02,-5.119699999999999945e-02,-3.606800000000000284e-02,4.594499999999999973e-02,1.035500000000000032e-01,1.447900000000000020e-01,2.293199999999999961e-01,6.367300000000000182e-01,1.166700000000000070e+00,1.062899999999999956e+00,1.628200000000000092e+00,2.175100000000000033e+00,2.500700000000000145e+00,2.092200000000000060e+00,1.455300000000000038e+00,2.124299999999999855e+00,1.000000000000000000e+00
-1.253600000000000048e+00,-1.802699999999999969e+00,-1.619399999999999951e+00,-2.041799999999999837e+00,-2.184600000000000097e+00,-2.222100000000000186e+00,-2.263399999999999856e+00,-1.984799999999999898e+00,-1.631799999999999917e+00,-1.199600000000000000e+00,-7.002199999999999536e-01,-4.313899999999999957e-01,-3.373099999999999987e-01,-1.528599999999999959e-01,6.261200000000000099e-02,2.582099999999999951e-01,4.433199999999999918e-01,4.401200000000000112e-01,4.161199999999999899e-01,4.278899999999999926e-01,3.126399999999999735e-01,3.133799999999999919e-01,4.046299999999999897e-01,3.760800000000000254e-01,3.916899999999999826e-01,4.066299999999999915e-01,3.704500000000000015e-01,3.901200000000000223e-01,3.430799999999999961e-01,2.530200000000000227e-01,2.916199999999999903e-01,3.541799999999999948e-01,3.441500000000000115e-01,3.793900000000000050e-01,4.445600000000000107e-01,4.370600000000000041e-01,4.176300000000000012e-01,3.986000000000000099e-01,3.397700000000000164e-01,3.259299999999999975e-01,3.537100000000000244e-01,3.524900000000000255e-01,3.383399999999999741e-01,3.361799999999999788e-01,3.366999999999999993e-01,3.158000000000000251e-01,3.146800000000000153e-01,3.216300000000000270e-01,2.447999999999999898e-01,2.348800000000000054e-01,3.427000000000000046e-01,3.239299999999999957e-01,2.898200000000000220e-01,3.893599999999999839e-01,3.948900000000000188e-01,2.797100000000000142e-01,2.284899999999999987e-01,2.920200000000000018e-01,3.837999999999999745e-01,3.661499999999999755e-01,3.166999999999999815e-01,3.621500000000000274e-01,3.996799999999999797e-01,3.812499999999999778e-01,3.954799999999999982e-01,4.513099999999999890e-01,4.705500000000000238e-01,4.208000000000000074e-01,3.907100000000000017e-01,4.294499999999999984e-01,4.714099999999999957e-01,5.149599999999999733e-01,5.674599999999999644e-01,5.946099999999999719e-01,6.346399999999999819e-01,6.848800000000000443e-01,6.646600000000000286e-01,6.300099999999999589e-01,6.701899999999999524e-01,6.908699999999999841e-01,6.204600000000000115e-01,5.758100000000000440e-01,6.027900000000000480e-01,6.032199999999999784e-01,5.971600000000000241e-01,6.367599999999999927e-01,6.269900000000000473e-01,5.685599999999999543e-01,5.648400000000000087e-01,5.674400000000000555e-01,5.492200000000000415e-01,5.828299999999999592e-01,6.355899999999999883e-01,6.321099999999999497e-01,5.979799999999999560e-01,5.714599999999999680e-01,5.735500000000000043e-01,6.006200000000000427e-01,5.805299999999999905e-01,5.352400000000000491e-01,5.561700000000000532e-01,5.622899999999999565e-01,5.138800000000000034e-01,5.563000000000000167e-01,6.405100000000000238e-01,5.952800000000000313e-01,5.505799999999999583e-01,6.128599999999999604e-01,6.006200000000000427e-01,5.427300000000000457e-01,5.354700000000000015e-01,4.956099999999999950e-01,4.839600000000000013e-01,4.982099999999999862e-01,5.068599999999999772e-01,5.835900000000000531e-01,6.007400000000000517e-01,5.897700000000000164e-01,5.958700000000000108e-01,4.328600000000000225e-01,2.792399999999999882e-01,1.707799999999999874e-01,-6.305800000000000294e-02,-1.652299999999999880e-01,-1.468000000000000138e-01,-2.462499999999999967e-01,-3.693799999999999861e-01,-5.620199999999999640e-01,-8.639999999999999902e-01,-1.261400000000000077e+00,-1.821800000000000086e+00,-2.359500000000000153e+00,-2.944700000000000095e+00,-3.557100000000000151e+00,-3.863900000000000112e+00,-3.804199999999999804e+00,-2.968399999999999928e+00,-2.062300000000000022e+00,-1.879699999999999926e+00,-4.865599999999999925e-01,2.000000000000000000e+00
-4.319000000000000061e-01,-8.252099999999999991e-01,-6.213300000000000489e-01,-6.189900000000000402e-01,-7.193699999999999539e-01,-6.548300000000000232e-01,-6.395300000000000429e-01,-7.366399999999999615e-01,-7.349099999999999522e-01,-6.582700000000000218e-01,-6.654900000000000260e-01,-6.994899999999999451e-01,-6.342799999999999550e-01,-5.479000000000000536e-01,-6.041999999999999593e-01,-7.353100000000000191e-01,-7.415199999999999569e-01,-6.391400000000000414e-01,-5.844200000000000506e-01,-5.944099999999999939e-01,-6.000999999999999668e-01,-5.752899999999999681e-01,-5.509699999999999598e-01,-5.459000000000000519e-01,-5.429100000000000037e-01,-5.495499999999999829e-01,-5.964899999999999647e-01,-6.567699999999999649e-01,-6.411700000000000177e-01,-5.562799999999999967e-01,-5.254199999999999982e-01,-5.570899999999999741e-01,-5.663399999999999546e-01,-5.652500000000000302e-01,-5.697799999999999532e-01,-5.046100000000000030e-01,-3.654200000000000226e-01,-2.778800000000000159e-01,-2.559100000000000263e-01,-1.446300000000000086e-01,8.180500000000000271e-02,2.575500000000000012e-01,2.872600000000000153e-01,2.748399999999999732e-01,3.388700000000000045e-01,4.425399999999999889e-01,5.144800000000000484e-01,5.402599999999999625e-01,5.105399999999999938e-01,4.721199999999999841e-01,4.598099999999999965e-01,4.112399999999999944e-01,2.838600000000000012e-01,1.415800000000000114e-01,5.074900000000000244e-02,-1.206999999999999957e-03,4.371599999999999792e-02,2.366900000000000115e-01,3.687099999999999822e-01,1.692299999999999915e-01,-3.030200000000000116e-01,-7.386800000000000033e-01,-1.087699999999999889e+00,-1.558899999999999952e+00,-2.095600000000000129e+00,-2.451499999999999790e+00,-2.662599999999999856e+00,-2.877200000000000202e+00,-2.986499999999999932e+00,-2.879300000000000193e+00,-2.715100000000000069e+00,-2.623499999999999943e+00,-2.470299999999999940e+00,-2.133700000000000152e+00,-1.700499999999999901e+00,-1.272399999999999975e+00,-8.436200000000000365e-01,-4.474500000000000144e-01,-1.664799999999999891e-01,4.943999999999999784e-02,2.913399999999999879e-01,4.977599999999999802e-01,6.519099999999999895e-01,8.269999999999999574e-01,9.378800000000000470e-01,8.967500000000000471e-01,8.323000000000000398e-01,8.649499999999999966e-01,9.061599999999999655e-01,9.001500000000000057e-01,9.266999999999999682e-01,9.787200000000000344e-01,9.971499999999999808e-01,9.788700000000000179e-01,9.320300000000000251e-01,8.883699999999999930e-01,8.862299999999999622e-01,8.999700000000000477e-01,8.939200000000000479e-01,9.054699999999999971e-01,9.466900000000000315e-01,9.561199999999999699e-01,9.389499999999999513e-01,9.411699999999999511e-01,9.336900000000000199e-01,9.140700000000000491e-01,9.484900000000000553e-01,1.012000000000000011e+00,9.971100000000000518e-01,9.143599999999999506e-01,8.871499999999999941e-01,9.388800000000000479e-01,9.759299999999999642e-01,9.654800000000000049e-01,9.573899999999999633e-01,9.605099999999999749e-01,9.402599999999999847e-01,9.184900000000000286e-01,9.226999999999999647e-01,9.087699999999999667e-01,8.690099999999999492e-01,8.561900000000000066e-01,8.616700000000000470e-01,8.404099999999999904e-01,8.167400000000000215e-01,8.366099999999999648e-01,8.573399999999999910e-01,8.116100000000000536e-01,7.517300000000000093e-01,7.623799999999999466e-01,7.866800000000000459e-01,7.557199999999999473e-01,7.237400000000000500e-01,6.944000000000000172e-01,6.438500000000000334e-01,6.844799999999999773e-01,7.661499999999999977e-01,6.600599999999999801e-01,5.912699999999999623e-01,9.731300000000000505e-01,3.000000000000000000e+00
-1.103599999999999914e+00,-2.126799999999999802e+00,-2.887999999999999901e+00,-3.157300000000000217e+00,-3.124899999999999789e+00,-2.953100000000000058e+00,-2.834499999999999797e+00,-2.494299999999999962e+00,-1.928500000000000103e+00,-1.199500000000000011e+00,-6.886200000000000099e-01,-5.982399999999999940e-01,-4.743700000000000139e-01,-1.290000000000000036e-01,1.418300000000000116e-01,2.708400000000000252e-01,3.189299999999999913e-01,2.774099999999999899e-01,2.928799999999999737e-01,2.779099999999999904e-01,2.948899999999999855e-01,3.265000000000000124e-01,2.350599999999999912e-01,2.636499999999999955e-01,3.113900000000000001e-01,3.076099999999999945e-01,2.706000000000000072e-01,3.001400000000000179e-01,3.555599999999999872e-01,3.539800000000000169e-01,3.748099999999999765e-01,2.898700000000000165e-01,2.883800000000000252e-01,3.252499999999999836e-01,3.034000000000000030e-01,2.868600000000000039e-01,2.758200000000000096e-01,2.760000000000000231e-01,1.901599999999999957e-01,1.776500000000000024e-01,2.213400000000000090e-01,1.928400000000000114e-01,1.448299999999999865e-01,1.695800000000000085e-01,2.159600000000000131e-01,1.006800000000000056e-01,2.914699999999999930e-02,1.726100000000000134e-01,1.595600000000000074e-01,1.223199999999999982e-01,1.265300000000000036e-01,6.000799999999999884e-02,1.164800000000000002e-01,9.166599999999999748e-02,8.484300000000000175e-02,9.229900000000000604e-02,4.316299999999999998e-02,7.530399999999999594e-02,1.018300000000000038e-01,1.384100000000000052e-01,2.081600000000000117e-01,2.215499999999999969e-01,2.226899999999999991e-01,2.957299999999999929e-01,3.004899999999999793e-01,2.783300000000000218e-01,3.568100000000000160e-01,4.089099999999999957e-01,4.094099999999999961e-01,4.342699999999999894e-01,5.154400000000000093e-01,5.078000000000000291e-01,4.985200000000000187e-01,5.699800000000000422e-01,5.480699999999999461e-01,5.700300000000000367e-01,6.133600000000000163e-01,5.798699999999999966e-01,6.100400000000000267e-01,6.426500000000000545e-01,5.969299999999999606e-01,6.052499999999999547e-01,6.122699999999999809e-01,5.504499999999999948e-01,5.678400000000000114e-01,5.901399999999999979e-01,6.242400000000000171e-01,6.648399999999999865e-01,6.635900000000000132e-01,6.500399999999999512e-01,5.681399999999999784e-01,5.998499999999999943e-01,5.649199999999999777e-01,5.782100000000000017e-01,6.744900000000000340e-01,6.390799999999999814e-01,6.436199999999999699e-01,6.223100000000000298e-01,6.764000000000000012e-01,6.959600000000000231e-01,6.456800000000000317e-01,7.098799999999999555e-01,7.382400000000000073e-01,7.416500000000000314e-01,7.789099999999999913e-01,7.591900000000000315e-01,7.918500000000000538e-01,8.264500000000000179e-01,8.167999999999999705e-01,8.414700000000000513e-01,8.142399999999999638e-01,7.977800000000000447e-01,7.806199999999999806e-01,6.711799999999999988e-01,6.196199999999999486e-01,5.405200000000000005e-01,5.582300000000000040e-01,6.903700000000000392e-01,6.073800000000000310e-01,4.863999999999999990e-01,3.844299999999999939e-01,3.065499999999999892e-01,2.453500000000000125e-01,2.972600000000000242e-01,4.511200000000000210e-01,4.038700000000000068e-01,1.572500000000000009e-01,-2.366800000000000015e-01,-7.283300000000000329e-01,-1.262000000000000011e+00,-1.917699999999999960e+00,-2.680600000000000094e+00,-3.324600000000000222e+00,-3.395700000000000163e+00,-2.745699999999999807e+00,-1.919100000000000028e+00,-1.171499999999999986e+00,-4.951699999999999990e-01,-7.489099999999999646e-01,-1.163300000000000001e+00,4.000000000000000000e+00
7.591700000000000115e-01,-9.772499999999999520e-01,-2.089900000000000091e+00,-2.992700000000000138e+00,-3.132400000000000073e+00,-2.837200000000000166e+00,-1.842500000000000027e+00,-9.262399999999999523e-01,-7.301600000000000312e-01,-3.556099999999999817e-01,1.579899999999999916e-01,2.593900000000000095e-01,2.857700000000000240e-01,3.336200000000000276e-01,1.756800000000000028e-01,2.321999999999999897e-01,2.071900000000000130e-01,1.493800000000000128e-01,2.597200000000000064e-01,1.617200000000000026e-01,1.625999999999999945e-01,1.058800000000000019e-01,7.349100000000000077e-02,3.115300000000000014e-02,1.563300000000000106e-02,-7.853200000000000458e-02,-1.053400000000000031e-01,-9.390900000000000636e-02,-1.857000000000000040e-01,-2.498400000000000065e-01,-1.809800000000000020e-01,-2.529500000000000082e-01,-2.656399999999999872e-01,-3.002900000000000014e-01,-3.370600000000000263e-01,-2.967299999999999938e-01,-3.976100000000000190e-01,-2.689500000000000224e-01,-2.641200000000000214e-01,-2.145199999999999885e-01,-1.450899999999999967e-01,-1.118299999999999988e-01,-1.362400000000000000e-01,1.213499999999999995e-02,6.176299999999999846e-02,1.381999999999999982e-03,1.344399999999999935e-02,1.203700000000000048e-01,1.326299999999999979e-01,1.974899999999999989e-01,1.403699999999999948e-01,1.620099999999999874e-01,2.380500000000000116e-01,1.381499999999999950e-01,9.005100000000000604e-02,9.317499999999999394e-02,1.249600000000000016e-01,1.230500000000000066e-01,1.283900000000000041e-01,1.018899999999999945e-01,7.837900000000000422e-02,7.638499999999999457e-02,2.268300000000000038e-01,1.763800000000000090e-01,1.697200000000000097e-01,2.294899999999999995e-01,2.509299999999999864e-01,3.598600000000000132e-01,4.086899999999999977e-01,4.194899999999999740e-01,4.681100000000000261e-01,5.636999999999999789e-01,4.844399999999999817e-01,4.721600000000000241e-01,4.914299999999999780e-01,5.524200000000000221e-01,5.539300000000000335e-01,5.227000000000000535e-01,5.383700000000000152e-01,4.767500000000000071e-01,4.523499999999999743e-01,4.252699999999999814e-01,4.068399999999999794e-01,4.204300000000000259e-01,3.322200000000000153e-01,2.571899999999999742e-01,3.117900000000000116e-01,2.938299999999999801e-01,4.137700000000000267e-01,4.281699999999999950e-01,5.430800000000000072e-01,7.585600000000000120e-01,8.852200000000000069e-01,1.014100000000000001e+00,1.293900000000000050e+00,1.557199999999999918e+00,1.811700000000000088e+00,1.923200000000000021e+00,2.037399999999999878e+00,1.864600000000000035e+00,1.598300000000000054e+00,1.521300000000000097e+00,1.148800000000000043e+00,7.266799999999999926e-01,3.982800000000000229e-01,1.112900000000000000e-01,-9.375799999999999412e-02,-1.943400000000000127e-01,-2.192399999999999904e-01,-2.772499999999999964e-01,-2.985900000000000221e-01,-1.665999999999999981e-01,-1.892500000000000016e-01,-2.323099999999999887e-01,-2.430100000000000038e-01,-2.524399999999999977e-01,-2.293999999999999928e-01,-2.290899999999999881e-01,-2.866099999999999759e-01,-2.407100000000000073e-01,-2.338999999999999968e-01,-3.049999999999999933e-02,2.146500000000000075e-01,6.349700000000000344e-01,8.346500000000000030e-01,7.717600000000000016e-01,8.174400000000000555e-01,7.405500000000000416e-01,6.072999999999999510e-01,5.647299999999999542e-01,6.996499999999999941e-01,9.711999999999999522e-01,2.883499999999999952e-01,-1.183599999999999985e+00,-2.564099999999999824e+00,-3.544399999999999995e+00,-3.748600000000000154e+00,-3.568799999999999972e+00,-2.980399999999999938e+00,-2.074300000000000033e+00,5.000000000000000000e+00
-3.230999999999999983e-01,-1.510799999999999921e+00,-2.768200000000000216e+00,-3.788600000000000190e+00,-4.100399999999999601e+00,-3.516599999999999948e+00,-2.939999999999999947e+00,-1.828799999999999981e+00,-1.088999999999999968e+00,-8.584699999999999553e-01,-2.809900000000000175e-01,1.659999999999999963e-04,-1.004499999999999976e-01,-1.531899999999999928e-01,-1.653100000000000125e-01,-2.080299999999999927e-01,1.661499999999999921e-01,3.421500000000000236e-02,-3.828800000000000259e-02,-7.450400000000000078e-02,-2.543500000000000205e-01,-1.362700000000000022e-01,-8.540000000000000716e-03,1.806099999999999928e-01,1.812400000000000122e-01,1.128799999999999942e-01,1.099099999999999938e-01,-2.500499999999999945e-02,6.474000000000000588e-02,5.693600000000000050e-02,-1.078400000000000053e-01,-2.883999999999999897e-01,1.409299999999999997e-01,5.355100000000000415e-01,3.763199999999999878e-01,2.465900000000000036e-01,2.164599999999999858e-02,-3.906999999999999883e-03,5.630899999999999794e-02,1.706000000000000016e-01,4.927700000000000136e-02,-1.111800000000000010e-01,3.455599999999999783e-01,2.597900000000000209e-01,8.408599999999999408e-02,1.762600000000000000e-01,2.012299999999999922e-01,2.178799999999999903e-01,2.167399999999999882e-01,4.491299999999999737e-01,5.290899999999999492e-01,5.722199999999999509e-01,5.583900000000000530e-01,5.037800000000000056e-01,5.275199999999999889e-01,4.295599999999999974e-01,2.211299999999999932e-01,3.279199999999999893e-01,2.989600000000000035e-01,2.699699999999999878e-01,2.866000000000000214e-01,3.288099999999999912e-01,3.684499999999999997e-01,3.294799999999999951e-01,3.050200000000000133e-01,2.154099999999999904e-01,1.543399999999999980e-02,2.528599999999999737e-01,6.801099999999999923e-01,7.359799999999999676e-01,7.219700000000000006e-01,6.070799999999999530e-01,5.461099999999999843e-01,7.505899999999999794e-01,6.771800000000000042e-01,7.096500000000000030e-01,6.644499999999999851e-01,6.964399999999999480e-01,6.250799999999999690e-01,5.583500000000000130e-01,6.034699999999999509e-01,6.773400000000000531e-01,3.952600000000000002e-01,2.843700000000000117e-01,3.672300000000000009e-01,2.853299999999999725e-01,3.152900000000000147e-01,2.432100000000000095e-01,2.205100000000000116e-01,1.158099999999999963e-01,2.639099999999999779e-01,3.513600000000000056e-01,3.922800000000000176e-01,2.741100000000000203e-01,5.682800000000000074e-01,5.019700000000000273e-01,7.697000000000000508e-01,9.311199999999999477e-01,1.134200000000000097e+00,1.547800000000000065e+00,1.722199999999999953e+00,1.863499999999999934e+00,1.575099999999999945e+00,1.259800000000000031e+00,1.591299999999999937e+00,1.579199999999999937e+00,1.516199999999999992e+00,1.212099999999999955e+00,9.516099999999999559e-01,6.175100000000000033e-01,1.098299999999999971e-01,-1.538299999999999945e-01,-3.632000000000000228e-01,-6.211600000000000454e-01,-7.170999999999999597e-01,-6.623299999999999743e-01,-7.020999999999999464e-01,-6.766900000000000137e-01,-6.435300000000000464e-01,-7.741599999999999593e-01,-8.524300000000000210e-01,-8.374800000000000022e-01,-8.533100000000000129e-01,-5.696200000000000152e-01,-3.867599999999999927e-01,-4.276200000000000001e-01,-3.800999999999999934e-01,-1.635999999999999954e-01,1.025299999999999961e-01,9.526000000000000023e-01,1.421799999999999953e+00,1.052200000000000024e+00,2.134199999999999986e-01,-1.003900000000000015e+00,-1.676900000000000057e+00,-2.055899999999999839e+00,-1.969000000000000083e+00,-1.548599999999999977e+00,-1.411200000000000010e+00,-2.620899999999999785e+00,1.000000000000000000e+00
-4.253000000000000114e-01,-9.566000000000000059e-01,-1.117799999999999905e+00,-1.857399999999999940e+00,-2.030299999999999994e+00,-2.320300000000000029e+00,-2.646399999999999864e+00,-2.600200000000000067e+00,-2.431000000000000050e+00,-2.167199999999999793e+00,-1.791600000000000081e+00,-1.246499999999999941e+00,-6.859199999999999742e-01,-3.725399999999999823e-01,-2.489899999999999891e-01,-9.272099999999999786e-02,8.418699999999999795e-02,2.792999999999999927e-01,4.491399999999999837e-01,4.632399999999999851e-01,4.101899999999999991e-01,3.735899999999999777e-01,3.948900000000000188e-01,4.643399999999999750e-01,4.738600000000000034e-01,4.747899999999999898e-01,4.587200000000000166e-01,4.263399999999999967e-01,4.932000000000000273e-01,5.171000000000000041e-01,4.224800000000000222e-01,3.875000000000000111e-01,4.424600000000000199e-01,4.486200000000000188e-01,3.945500000000000118e-01,3.908499999999999752e-01,4.045699999999999852e-01,3.999900000000000122e-01,4.464299999999999935e-01,4.660199999999999898e-01,3.909799999999999942e-01,3.782699999999999951e-01,4.408599999999999741e-01,4.380100000000000104e-01,4.319799999999999751e-01,4.467099999999999960e-01,3.966000000000000081e-01,3.906600000000000072e-01,4.544599999999999751e-01,4.096099999999999741e-01,3.596699999999999897e-01,4.216300000000000048e-01,3.851499999999999924e-01,3.103299999999999947e-01,3.899799999999999933e-01,4.534500000000000197e-01,4.055599999999999761e-01,3.847300000000000164e-01,4.095300000000000051e-01,3.883300000000000085e-01,3.303400000000000225e-01,3.375199999999999867e-01,4.097799999999999776e-01,4.245900000000000230e-01,4.022899999999999809e-01,4.438699999999999868e-01,4.865999999999999770e-01,5.232400000000000384e-01,5.742800000000000127e-01,5.265499999999999625e-01,4.519400000000000084e-01,4.981700000000000017e-01,5.550699999999999523e-01,5.376100000000000323e-01,5.394999999999999796e-01,5.691699999999999537e-01,5.761100000000000110e-01,5.753599999999999826e-01,5.625799999999999690e-01,5.469000000000000528e-01,5.691000000000000503e-01,6.213300000000000489e-01,6.124600000000000044e-01,5.215199999999999836e-01,4.839999999999999858e-01,4.918199999999999794e-01,5.086100000000000065e-01,5.674599999999999644e-01,5.605799999999999672e-01,5.293999999999999817e-01,5.570100000000000051e-01,5.748100000000000431e-01,5.712599999999999900e-01,5.293499999999999872e-01,5.171400000000000441e-01,5.530699999999999505e-01,5.391799999999999926e-01,5.419899999999999718e-01,5.544099999999999584e-01,5.310799999999999965e-01,5.328500000000000458e-01,5.212999999999999856e-01,5.142900000000000249e-01,5.399899999999999700e-01,5.533500000000000085e-01,5.678199999999999914e-01,6.055899999999999617e-01,6.555600000000000316e-01,6.063699999999999646e-01,5.147199999999999553e-01,5.535099999999999465e-01,5.683500000000000218e-01,4.959500000000000020e-01,4.891499999999999737e-01,4.998900000000000010e-01,4.601600000000000135e-01,4.101199999999999846e-01,4.100699999999999901e-01,4.810599999999999876e-01,4.914399999999999880e-01,3.802699999999999969e-01,2.826699999999999768e-01,2.358300000000000118e-01,1.056900000000000062e-01,-7.336199999999999666e-02,-1.429700000000000137e-01,-2.561800000000000188e-01,-4.612100000000000088e-01,-6.164899999999999824e-01,-8.703100000000000280e-01,-1.318899999999999961e+00,-1.677999999999999936e+00,-2.099299999999999944e+00,-2.770599999999999952e+00,-3.044900000000000162e+00,-3.379199999999999982e+00,-3.355399999999999938e+00,-2.750999999999999890e+00,-3.157599999999999962e+00,-1.369699999999999918e+00,2.000000000000000000e+00
-3.591599999999999793e-01,-8.833100000000000396e-01,-7.251800000000000468e-01,4.702300000000000230e-02,3.409099999999999908e-01,-8.964499999999999691e-01,-2.327799999999999869e+00,-3.593799999999999883e+00,-4.071399999999999686e+00,-4.142500000000000071e+00,-3.936700000000000088e+00,-3.015200000000000102e+00,-1.899199999999999999e+00,-1.202199999999999935e+00,-1.350700000000000012e+00,-5.858499999999999819e-01,-1.472999999999999865e-01,-2.631299999999999750e-01,-1.927399999999999947e-01,-2.365700000000000025e-01,-2.900400000000000200e-01,-3.098299999999999943e-01,-1.511599999999999888e-01,-1.800400000000000056e-01,-1.460100000000000009e-01,-2.092900000000000038e-01,-1.244200000000000028e-01,-1.219100000000000045e-01,-2.284400000000000042e-01,-2.222399999999999931e-01,-1.859099999999999919e-01,-1.972200000000000064e-01,-2.413899999999999935e-01,-1.590199999999999947e-01,-1.874200000000000033e-01,-1.259500000000000064e-01,-5.471299999999999775e-02,-2.312599999999999933e-01,-2.310999999999999999e-01,-2.197699999999999931e-01,-3.090600000000000014e-01,-2.288300000000000056e-01,-2.208700000000000108e-01,-2.501300000000000190e-01,-9.012199999999999378e-02,-7.599899999999999711e-02,-1.061900000000000066e-01,-4.960000000000000216e-04,1.371900000000000064e-01,2.436200000000000171e-02,1.078299999999999953e-01,4.151599999999999735e-02,2.889700000000000046e-01,2.234299999999999897e-01,3.244199999999999862e-01,3.404599999999999849e-01,2.368500000000000050e-01,1.706199999999999939e-01,1.096700000000000036e-01,2.198599999999999999e-01,5.113999999999999796e-02,1.403099999999999903e-01,9.865000000000000158e-02,-3.022299999999999986e-02,1.435599999999999932e-01,5.885100000000000053e-02,2.455299999999999844e-02,3.631500000000000006e-02,1.339300000000000039e-02,4.682599999999999957e-02,1.110799999999999982e-01,2.664199999999999902e-01,1.662399999999999989e-01,2.628499999999999726e-01,2.321000000000000008e-01,2.502499999999999725e-01,3.246299999999999741e-01,3.752499999999999725e-01,3.865600000000000147e-01,3.935000000000000164e-01,4.388799999999999923e-01,5.227500000000000480e-01,5.790600000000000191e-01,4.459000000000000186e-01,4.856900000000000106e-01,5.780499999999999527e-01,5.228000000000000425e-01,5.331900000000000528e-01,4.967799999999999994e-01,3.504200000000000093e-01,4.116199999999999859e-01,4.896900000000000142e-01,3.661499999999999755e-01,3.539100000000000024e-01,4.320100000000000051e-01,4.034900000000000153e-01,5.012600000000000389e-01,3.828699999999999881e-01,4.593400000000000261e-01,3.520800000000000041e-01,4.239399999999999835e-01,4.434400000000000008e-01,4.436100000000000043e-01,6.780800000000000161e-01,8.482699999999999685e-01,1.049600000000000088e+00,1.307399999999999896e+00,1.450700000000000101e+00,1.883999999999999897e+00,2.281400000000000095e+00,2.459600000000000009e+00,2.287199999999999900e+00,2.254599999999999937e+00,1.965999999999999970e+00,1.685300000000000020e+00,1.413799999999999946e+00,1.131699999999999928e+00,6.985000000000000098e-01,2.645899999999999919e-01,-6.366000000000000131e-03,-3.301799999999999735e-01,-3.422799999999999732e-01,-3.445199999999999929e-01,-3.186499999999999888e-01,-3.889699999999999824e-01,-3.464099999999999957e-01,-3.478899999999999770e-01,-4.074900000000000189e-01,-4.591700000000000226e-01,-4.486100000000000088e-01,-3.602500000000000147e-01,-3.094999999999999973e-01,-3.014000000000000012e-01,-4.530000000000000138e-01,-5.299700000000000522e-01,-5.073100000000000387e-01,-3.181100000000000039e-01,7.768899999999999417e-02,7.462900000000000089e-01,5.806700000000000195e-01,3.000000000000000000e+00
